angle,5L-0,5L-1,5L-2,5L-3,5L-4,5L-5
5.0197,178.753,174.6447,167.1128,175.1426,169.4367,149.8703
5.0587,175.3634,171.933,164.7298,173.15,169.108,152.9312
5.0977,178.5834,167.2892,162.8552,174.1062,165.0576,147.7963
5.1367,170.2746,170.4772,160.3818,175.515,163.6872,148.7385
5.1757,168.6228,170.6974,159.0916,168.5837,163.2292,149.0894
5.2147,169.2554,168.2177,159.2189,167.9602,158.3018,146.9729
5.2537,168.6865,166.3122,159.9892,169.5038,158.4357,141.554
5.2927,166.1382,163.265,155.5772,162.0726,157.3406,139.152
5.3317,165.2441,160.2762,153.8499,160.2498,156.3019,141.1181
5.3707,161.385,159.8484,154.1454,158.705,156.6541,137.8997
5.4097,163.218,156.2226,154.6347,156.2279,154.1549,135.7532
5.4487,161.5386,156.3059,149.2682,158.7617,149.3462,135.4795
5.4877,159.4935,156.1454,149.7013,157.6048,152.3374,136.2016
5.5267,157.3693,153.6398,148.3315,156.9323,146.2744,133.8787
5.5657,155.34,152.9158,150.072,153.2358,146.717,136.879
5.6047,153.839,150.5446,147.6516,150.4078,146.0087,132.4229
5.6437,152.2469,149.9131,146.9809,150.0679,145.4959,133.4515
5.6827,150.7275,150.4913,143.4776,150.0088,143.2394,130.8265
5.7217,150.0971,149.1686,144.4955,148.7507,143.1017,131.9423
5.7607,151.4972,145.9913,142.8156,147.0153,140.9627,130.3972
5.7997,150.0785,146.9894,142.6877,147.3569,141.4481,128.8203
5.8387,149.1493,144.0175,141.4437,146.0802,140.6604,132.0718
5.8777,149.6522,141.1967,140.9962,144.5319,141.4261,129.2059
5.9167,147.9392,142.4033,140.4245,142.2201,139.1697,126.2564
5.9557,146.1158,141.2279,139.3308,143.8303,136.4409,126.1877
5.9947,145.2993,140.4184,141.052,143.1909,134.9495,125.7636
6.0337,145.6838,140.0486,138.2518,142.6918,135.0924,125.0959
6.0727,144.1189,140.3168,139.1285,143.0502,136.7309,127.3149
6.1117,144.9631,138.9968,137.4775,138.5589,135.1778,127.5882
6.1507,144.0559,139.7972,137.2292,138.9797,137.4152,125.7024
6.1897,142.1619,141.3957,137.329,138.208,137.7562,125.0191
6.2287,142.2587,139.0389,135.4159,137.7194,135.8996,122.5562
6.2677,142.2202,138.6157,134.5849,136.4557,131.3621,123.6882
6.3067,142.3199,137.9233,130.5313,137.5257,132.6969,124.6527
6.3457,141.1222,136.6439,132.8371,137.8459,134.8305,125.7599
6.3847,140.2606,137.3289,135.6235,136.8826,134.204,124.1333
6.4237,137.9191,136.5777,134.6006,137.2282,133.7735,123.719
6.4627,140.7316,135.5157,134.2854,139.2698,131.8014,123.9577
6.5017,141.6119,135.4803,133.2442,138.826,132.1224,124.7946
6.5407,137.9216,137.1388,133.6194,136.6201,131.6865,122.1603
6.5797,138.5704,136.6247,134.9507,135.8486,128.9664,122.5146
6.6187,139.1997,134.3441,135.8875,135.5985,131.2758,123.3285
6.6577,137.5732,134.0266,135.1213,136.3678,133.5374,123.6849
6.6967,136.2985,134.2546,133.678,134.8911,133.9755,122.0115
6.7357,135.853,133.4905,132.5191,135.4806,133.2809,120.8641
6.7747,135.0745,132.7142,133.1905,137.4338,131.0193,121.8272
6.8137,136.6982,133.8361,134.0167,137.7186,130.498,122.7834
6.8527,137.1323,135.4154,132.742,135.8013,131.3748,123.151
6.8917,134.6259,134.781,130.8989,135.244,131.8789,123.6919
6.9307,134.9172,133.1378,133.0698,135.8948,132.1215,126.047
6.9697,136.5621,132.0855,136.2726,136.8504,131.523,125.2531
7.0087,135.436,131.4894,134.0299,136.0773,130.28,122.7518
7.0477,133.9866,130.7462,132.1034,133.0405,129.8221,123.4229
7.0867,136.3583,131.9415,132.0941,132.2272,130.5327,123.0517
7.1257,137.9272,134.3062,131.1532,132.5026,129.0646,122.8949
7.1647,134.359,133.7603,133.004,133.5648,127.3119,125.7929
7.2037,132.7083,132.6325,134.1681,132.6767,127.6528,126.0462
7.2427,134.824,131.7392,132.5253,130.1579,126.1865,124.7065
7.2817,135.8862,131.1237,131.2837,130.4281,126.6513,125.3869
7.3207,135.2591,131.17,131.5543,130.1401,127.4873,125.1587
7.3597,135.4212,130.8852,132.5219,128.9163,124.5913,125.2758
7.3987,136.2808,132.2413,131.5931,128.821,123.5436,125.7408
7.4377,134.3661,131.8953,132.4013,128.885,125.5277,125.994
7.4767,135.2732,132.148,131.837,126.8161,128.063,125.2436
7.5157,137.1026,131.2542,130.9642,126.3527,127.2535,126.7753
7.5547,137.7747,129.7333,132.3758,130.0062,124.5815,127.7255
7.5937,137.2573,131.9099,133.7566,127.967,123.7785,128.4239
7.6327,139.1995,133.6062,134.8911,128.0238,125.3901,128.0672
7.6717,141.8247,132.8686,136.3951,129.2555,127.0171,129.7112
7.7107,140.8485,133.8612,137.4166,130.3692,128.3265,130.68
7.7497,142.2902,133.244,136.1486,132.2008,129.7016,131.8383
7.7887,147.4741,134.2168,137.1633,134.5092,130.8946,132.3257
7.8277,145.7619,136.4102,136.5581,132.3522,133.7955,134.0328
7.8667,146.8715,137.6287,138.6748,135.2897,135.3301,135.4463
7.9057,149.7753,142.1687,141.5734,143.298,137.1818,138.4093
7.9447,155.9185,144.4153,146.371,145.9503,140.2944,141.1881
7.9837,160.4976,149.7176,148.8945,151.8994,141.8554,144.4225
8.0227,168.2139,153.8211,154.6586,161.9305,149.3666,144.8623
8.0617,175.4122,157.6881,158.9608,172.478,159.3007,149.7692
8.1007,183.3069,162.9261,165.3795,183.2557,166.5209,155.3637
8.1397,195.1788,170.7216,171.7016,197.1178,176.9081,164.7397
8.1787,211.8662,188.1471,180.2124,217.3142,187.1553,176.1374
8.2177,231.1659,200.7306,191.9836,247.2164,204.759,182.1414
8.2567,251.2447,219.5622,205.6117,282.0106,230.3517,197.2975
8.2957,278.9076,243.0857,223.09,315.786,258.4796,209.5798
8.3347,314.4229,267.3265,250.5785,371.2308,295.811,230.0564
8.3737,369.3006,302.8503,283.5648,441.4955,341.0037,253.6446
8.4127,436.0728,351.5328,319.7836,544.5478,397.2806,286.3506
8.4517,515.5023,410.0369,368.4913,656.3496,482.2466,319.9585
8.4907,576.3225,489.0751,422.0232,775.2565,577.0336,364.7141
8.5297,569.7476,563.3324,459.7985,792.3782,666.049,405.1775
8.5687,473.1642,606.7165,461.0496,645.6096,701.7791,415.9994
8.6077,343.6006,561.4481,409.505,425.7205,619.7568,381.175
8.6467,260.2043,419.7687,332.3036,279.1655,455.731,333.0261
8.6857,215.7765,298.149,261.2223,204.4515,307.2006,275.1948
8.7247,195.4571,226.5148,222.0022,173.2198,222.3767,237.9355
8.7637,185.5747,195.3804,202.3125,153.216,185.8511,215.7629
8.8027,178.2593,179.8514,187.21,146.0515,167.5667,206.1645
8.8417,174.451,172.7499,179.448,141.0353,156.6421,198.1068
8.8807,167.5977,167.3544,176.0184,133.9014,148.798,193.5269
8.9197,165.6984,164.5853,168.2262,135.4541,144.5176,192.375
8.9587,162.6169,157.1486,172.6225,130.7292,139.2996,188.4513
8.9977,163.6557,153.1148,165.4575,127.8697,140.7847,185.8805
9.0367,162.39,153.9585,158.2065,129.5597,136.6227,183.7184
9.0757,161.8992,154.4808,158.2262,128.9758,136.3881,184.6949
9.1147,160.6912,152.8274,161.7312,128.4781,133.8586,181.2297
9.1537,160.4817,149.8032,161.9627,127.8474,132.6859,178.7552
9.1927,159.4023,151.4527,158.9882,128.9044,136.8916,179.5825
9.2317,162.3947,151.3791,156.5001,127.9166,132.6258,180.8973
9.2707,160.0963,152.0694,156.7997,130.5982,132.6563,177.8113
9.3097,161.0402,155.9588,156.1822,130.4853,134.6507,175.5682
9.3487,159.2559,153.3048,158.5957,133.1155,134.8294,172.7978
9.3877,164.2045,154.013,156.7548,136.0532,138.9947,171.8437
9.4267,166.4739,155.9498,157.6927,140.1943,141.2852,177.1396
9.4657,171.0065,161.1565,160.0942,148.9949,141.4391,171.2112
9.5047,176.9143,161.3879,165.1723,150.7606,147.5563,174.9451
9.5437,183.0979,164.7382,167.5187,162.807,153.8304,174.6666
9.5827,189.8591,171.0249,172.063,178.4446,164.1513,176.3938
9.6217,200.9184,179.5112,181.2768,195.9689,175.9467,181.9224
9.6607,217.195,190.3846,189.415,217.6931,188.2222,185.4336
9.6997,238.3863,206.3686,201.3916,244.7965,208.6796,196.6538
9.7387,263.3895,225.7873,215.043,290.2866,234.6804,205.556
9.7777,299.5892,248.8719,236.5677,339.8042,271.9242,223.261
9.8167,328.1048,280.5233,258.1722,389.0339,315.4864,242.3873
9.8557,330.0306,316.9585,277.9925,395.412,353.3215,253.8636
9.8947,283.1477,333.7801,282.4716,338.1796,369.3218,253.6629
9.9337,225.585,317.7092,259.6027,248.7125,334.1684,239.7951
9.9727,187.8086,264.5393,224.3434,184.0257,265.1215,215.9528
10.0117,169.1324,209.4881,192.5001,153.1672,201.3158,190.0403
10.0507,157.7065,176.1644,171.4505,137.711,166.356,171.9004
10.0897,150.45,160.6777,159.1849,130.7946,146.1759,159.4716
10.1287,144.7796,152.7761,154.8684,126.5476,135.3134,153.2081
10.1677,142.3614,148.4981,151.3538,124.616,131.9015,148.6081
10.2067,142.2954,144.2167,150.4457,123.15,130.457,143.7651
10.2457,142.2684,140.6741,146.5623,121.7854,126.2786,142.0819
10.2847,139.8908,137.9969,141.7354,123.6843,127.3581,139.5604
10.3237,138.8828,136.9684,141.6476,120.9126,126.1518,139.1833
10.3627,136.2786,137.772,142.2071,117.3526,124.9543,137.0165
10.4017,135.3932,134.8559,140.0817,116.7437,126.0775,133.9885
10.4407,135.0267,132.5341,141.6764,119.9243,124.5912,133.7155
10.4797,134.3755,134.1373,140.131,120.6181,122.4324,134.8742
10.5187,133.1615,134.0243,135.6201,119.0318,121.9464,134.2445
10.5577,133.0298,132.1947,136.3396,118.7468,120.8025,133.9899
10.5967,133.6782,133.7984,136.6099,119.5846,120.9717,133.8229
10.6357,134.1721,131.6572,136.4898,117.9562,119.702,133.2445
10.6747,132.1996,130.4405,133.625,115.9388,119.9076,130.3942
10.7137,130.6644,131.1086,132.2577,117.4119,119.7266,130.4878
10.7527,130.8452,129.8738,131.0718,118.2629,118.3967,131.2304
10.7917,128.9894,130.6684,130.9078,118.3807,118.4654,132.2203
10.8307,127.5966,129.9744,131.2164,118.24,118.3742,132.0438
10.8697,126.6139,127.2109,128.1759,117.3406,118.8877,128.1155
10.9087,125.9068,127.986,129.0996,118.1278,119.3165,126.186
10.9477,126.5147,128.7223,131.3183,117.4164,118.9866,127.5461
10.9867,127.4528,128.381,128.193,115.3544,119.0527,126.3173
11.0257,125.7549,129.7163,126.0512,115.6018,118.5569,123.9126
11.0647,123.9431,128.8562,127.0482,116.2921,116.7792,124.37
11.1037,124.781,126.2188,127.1473,114.4676,116.8742,124.3882
11.1427,124.6518,126.6909,126.0434,113.7084,117.5228,121.884
11.1817,123.4192,127.6585,125.573,116.0975,117.7453,120.0469
11.2207,122.666,126.887,125.7961,115.7835,118.8996,121.929
11.2597,124.6299,126.514,127.5108,113.938,117.7029,122.0628
11.2987,123.6365,124.8568,128.8617,112.6401,116.7132,122.099
11.3377,122.2805,123.2796,124.8118,112.7017,115.5337,123.5948
11.3767,122.6847,122.159,122.8908,113.8599,115.4563,122.8566
11.4157,122.5516,123.0424,120.5325,113.6642,115.5603,122.8366
11.4547,122.1882,124.4301,119.919,111.9277,115.5997,123.1768
11.4937,122.7353,125.1668,120.3433,111.0537,115.0743,121.6981
11.5327,125.214,123.6304,121.44,113.209,113.9167,120.3687
11.5717,124.6473,122.7241,123.9141,114.9227,115.3856,119.7638
11.6107,121.6307,121.695,122.4162,114.2565,114.9411,119.2176
11.6497,119.1551,121.2112,122.6819,115.2913,115.6643,119.171
11.6887,118.1454,120.1568,120.5177,112.6812,116.9724,118.2898
11.7277,119.2334,120.2718,119.8733,112.2035,116.3644,118.537
11.7667,119.3678,121.7636,119.7527,114.3053,114.1861,118.3612
11.8057,118.1599,121.084,119.9896,112.8799,112.5427,118.3788
11.8447,116.4123,120.5892,120.7122,110.8964,114.5835,117.878
11.8837,118.9046,120.0701,118.4355,112.3352,115.1948,116.9317
11.9227,122.6715,123.3682,118.1068,114.3799,112.8918,116.4784
11.9617,116.5576,123.2649,116.9995,113.3056,112.7253,114.7449
12.0007,116.2169,122.6188,116.7645,110.1083,116.5055,115.4029
12.0397,116.0358,121.6966,117.0304,110.1922,115.0819,117.6004
12.0787,116.7777,119.8295,117.0094,110.6233,113.5985,115.1974
12.1177,117.1463,118.9749,116.207,112.2913,111.187,113.5286
12.1567,116.538,122.534,118.2187,113.4382,113.0773,114.6002
12.1957,114.8943,122.5934,116.8348,109.8256,111.7266,115.7102
12.2347,116.4342,120.4792,116.4837,110.7863,110.4713,115.5736
12.2737,117.9605,120.4799,117.776,106.0515,111.546,114.6753
12.3127,114.0229,120.4451,115.722,108.6349,110.5466,112.3111
12.3517,111.9399,121.9788,118.7152,110.8115,111.311,110.8984
12.3907,114.9469,121.6537,113.2355,109.4378,110.7742,113.0484
12.4297,115.5171,116.361,112.7159,110.4737,110.0138,113.5054
12.4687,115.4851,120.2347,113.093,109.9023,109.2402,114.2621
12.5077,115.0199,118.9115,115.832,107.78,111.8794,113.419
12.5467,117.4033,117.293,115.6817,111.1889,110.1573,113.8405
12.5857,114.6037,120.9951,115.0399,106.494,108.602,111.4415
12.6247,115.0162,117.1014,114.3933,107.084,108.6888,110.8304
12.6637,112.3425,114.9805,111.2811,106.4026,109.6289,113.3417
12.7027,111.5426,115.982,113.12,105.5197,109.106,113.0741
12.7417,114.5889,118.395,113.0907,108.6765,108.85,111.11
12.7807,116.485,115.6748,114.3798,105.1319,109.4458,110.0258
12.8197,110.9476,118.7706,111.6037,106.6304,109.9989,112.931
12.8587,112.4266,116.3296,109.9454,109.3102,107.89,111.2342
12.8977,113.8851,114.5218,109.288,106.4137,107.0066,110.9877
12.9367,109.8211,117.2548,111.6988,104.9488,109.2118,111.5593
12.9757,112.1112,116.9906,111.0451,106.3453,109.4867,111.9523
13.0147,111.7284,116.5822,112.0102,105.5586,109.4125,111.2002
13.0537,113.3394,115.854,111.1522,106.5214,109.3303,113.1173
13.0927,111.039,116.4101,113.2705,107.0775,107.6385,112.6964
13.1317,112.4187,118.3666,109.664,104.29,108.0279,109.5011
13.1707,112.7335,116.5759,110.7934,105.0973,109.4255,108.9777
13.2097,112.4461,114.9969,106.5687,103.2756,107.5759,109.3905
13.2487,108.262,115.5437,107.6398,104.8134,108.9768,110.841
13.2877,109.8231,114.8138,108.4981,105.4738,105.829,108.7731
13.3267,110.9359,115.2181,111.6333,103.5981,108.1139,108.7382
13.3657,110.7942,113.3172,109.9869,104.2059,108.2006,111.5676
13.4047,113.0782,114.5514,108.783,105.8728,105.9708,109.2823
13.4437,114.3594,118.7481,109.0153,102.9106,106.7889,113.0479
13.4827,111.7728,116.9155,108.7438,104.0626,106.9469,109.3006
13.5217,109.3669,117.2111,108.6661,104.0725,106.3328,109.9034
13.5607,108.9775,113.8903,109.1604,103.5688,107.7931,109.7656
13.5997,111.9748,114.7081,110.3495,104.3232,107.3603,110.578
13.6387,108.5432,117.9509,110.5924,105.9198,105.2133,110.1427
13.6777,110.4579,117.1707,110.6751,107.3145,105.5848,109.5109
13.7167,111.0798,119.3938,111.0882,108.76,107.6944,110.2384
13.7557,112.1457,116.8371,109.2101,107.3517,106.7706,112.8391
13.7947,113.2242,118.1177,110.2981,110.6954,108.0794,112.2122
13.8337,114.8704,117.0278,111.1143,113.0841,110.5339,111.8166
13.8727,117.2157,115.7973,114.4881,116.8118,112.2851,114.5158
13.9117,117.5178,119.1999,114.6898,121.0143,114.7031,114.0646
13.9507,120.2824,122.4528,115.4258,124.8263,118.432,113.4141
13.9897,119.0971,126.3895,115.6126,121.6276,120.0922,116.0034
14.0287,118.7067,129.4549,115.1781,114.9766,119.8916,114.7538
14.0677,113.858,124.8558,114.8589,107.456,117.8826,115.3582
14.1067,111.1859,119.7454,111.3142,106.2075,112.1182,113.9441
14.1457,109.5728,117.9564,107.4761,106.1635,109.7536,112.7741
14.1847,108.5928,113.2306,107.2608,106.2359,107.0657,107.8142
14.2237,107.5602,112.1548,106.5811,104.0379,104.8426,106.4979
14.2627,108.7749,113.8401,106.7199,104.9911,105.2422,109.2446
14.3017,107.8644,112.6292,106.6694,103.8941,104.312,109.1281
14.3407,106.2499,113.122,106.0175,103.8952,102.6431,107.4018
14.3797,105.993,114.5166,107.0237,101.2437,102.8456,108.5233
14.4187,107.5514,111.9833,106.1619,101.6271,103.2508,107.1253
14.4577,106.8774,112.1819,106.0589,103.2762,103.9098,106.4325
14.4967,109.1877,113.7465,104.9076,103.4805,104.551,106.1804
14.5357,106.9906,112.4019,104.1547,104.609,104.0662,105.676
14.5747,104.4533,111.3776,105.8943,101.1041,103.6443,107.5436
14.6137,104.0547,111.9792,105.8036,101.6064,104.045,106.9395
14.6527,103.6212,110.8571,102.8446,103.0295,103.0365,105.7832
14.6917,103.9671,109.3855,103.0538,101.4255,104.3665,108.2142
14.7307,106.8487,110.1456,105.1622,102.1535,104.4118,107.9794
14.7697,105.7792,112.4101,105.2362,101.6694,103.1636,107.0566
14.8087,104.5097,111.4416,105.1186,101.526,102.1927,107.2717
14.8477,104.8981,109.6687,104.5136,101.4016,101.5452,107.2513
14.8867,104.7116,110.0339,102.9214,100.2267,100.6473,107.5479
14.9257,107.1882,110.7953,103.2109,98.8675,98.0148,105.441
14.9647,106.0861,112.1905,103.6196,98.668,100.2992,104.7707
15.0037,105.852,111.0596,102.5472,99.4337,101.3111,106.1604
15.0427,106.9749,111.3579,102.0075,100.4605,98.4552,105.2361
15.0817,102.9689,111.8736,102.2837,100.5653,98.0922,106.1058
15.1207,102.3449,109.3725,102.7508,99.2869,99.1995,106.7624
15.1597,106.016,109.6013,102.1172,99.915,100.8598,103.6639
15.1987,106.3372,109.605,102.1821,98.4218,100.2871,104.3173
15.2377,104.421,110.4848,102.7079,98.4411,101.1513,105.5948
15.2767,104.7393,110.3567,103.1324,98.0548,99.5629,104.087
15.3157,106.4281,109.4806,102.5831,99.6462,98.0763,103.9536
15.3547,105.058,109.5278,101.8466,99.2666,99.7136,103.373
15.3937,104.632,110.0084,101.6461,97.431,100.0195,104.6265
15.4327,105.7498,109.4335,99.3077,97.8073,98.2709,104.5555
15.4717,104.6199,105.2042,100.3923,97.8379,99.1536,104.9778
15.5107,104.7055,106.4927,102.9563,97.4355,98.3936,104.6796
15.5497,103.3943,107.9565,99.4899,97.6373,98.122,102.2969
15.5887,102.4429,107.5663,100.5756,97.1189,98.2841,102.117
15.6277,100.4813,107.3896,102.013,97.462,98.1694,103.3354
15.6667,104.3433,108.4227,101.9163,97.9551,98.5415,103.7076
15.7057,104.4098,107.0625,101.0173,98.535,97.0718,103.3406
15.7447,103.7212,107.7869,100.3252,95.1249,97.5506,103.8368
15.7837,103.1302,106.2274,98.9756,94.6611,98.5085,102.9055
15.8227,102.6582,106.947,98.6356,96.3435,96.224,101.4755
15.8617,102.9101,107.1376,100.8036,96.387,98.4795,101.0008
15.9007,99.9588,105.9727,99.9114,95.6273,97.5205,103.4692
15.9397,100.0047,106.6112,100.2311,95.0314,98.3859,102.4997
15.9787,101.2666,106.4447,101.0902,94.6685,97.438,103.5082
16.0177,99.9354,107.2727,100.418,97.5812,99.0416,103.3037
16.0567,101.541,106.3943,100.2371,95.5711,95.9788,102.2144
16.0957,101.8801,109.2111,98.1301,97.181,94.1957,101.4699
16.1347,102.8591,107.2943,98.9555,97.0837,96.661,105.6573
16.1737,101.856,106.1217,97.7051,95.888,97.4571,104.2486
16.2127,102.5213,104.2681,99.4813,96.2831,97.8648,102.493
16.2517,101.1645,102.2711,100.2168,98.0696,98.8607,102.0292
16.2907,99.6797,104.7295,101.6848,96.9589,97.9481,101.4621
16.3297,102.2138,109.2114,98.4196,98.22,96.4204,101.0095
16.3687,100.2086,107.1043,99.6833,97.9519,96.8277,102.9981
16.4077,102.7235,102.3623,99.9562,100.4861,98.9496,105.2695
16.4467,100.9574,107.9652,100.586,97.063,99.3708,102.5415
16.4857,99.9918,105.6596,100.6248,95.6547,98.3971,104.9345
16.5247,99.1867,108.3322,99.282,95.8007,98.3014,102.165
16.5637,100.4759,106.6003,97.9551,94.6269,96.2618,100.9588
16.6027,102.6048,107.7882,98.1244,96.2739,94.6887,99.5812
16.6417,99.629,103.7876,95.88,95.1442,92.3356,103.9746
16.6807,98.9978,106.4436,94.5359,95.2819,93.3353,100.3623
16.7197,99.1395,102.8312,96.4512,93.0066,94.1738,101.5313
16.7587,100.0409,101.9674,96.8699,95.9716,96.4689,100.898
16.7977,100.7478,105.5134,97.8549,93.4628,92.387,99.0404
16.8367,98.0361,106.8076,98.5534,96.0718,95.8793,100.5401
16.8757,96.4674,104.2037,95.2108,91.9049,96.4327,98.3048
16.9147,97.2497,106.0997,97.135,96.078,95.5526,101.5808
16.9537,100.2911,104.5523,98.5083,92.773,100.068,99.9705
16.9927,98.3661,102.4338,97.8059,95.633,97.4084,99.2337
17.0317,99.0117,105.9772,96.9077,95.9343,94.7058,98.4961
17.0707,98.8621,104.1587,97.6511,95.6141,96.3363,101.5162
17.1097,101.1685,104.2834,99.0494,94.1528,93.3944,102.0202
17.1487,99.1018,105.14,95.0056,96.3677,96.8602,100.7539
17.1877,101.1602,106.4942,97.824,96.0614,97.7721,99.9762
17.2267,99.2851,104.8108,98.7946,93.779,95.0483,98.6077
17.2657,100.4482,103.5866,98.8141,94.8739,94.9396,100.8765
17.3047,96.1692,103.0555,95.5227,91.9123,93.9704,101.4471
17.3437,96.7843,104.3078,96.8094,92.0896,97.6302,100.9992
17.3827,97.9209,106.8005,97.8118,92.5072,97.4634,100.1963
17.4217,98.5715,102.7201,96.4281,95.7163,95.0903,100.2479
17.4607,97.3799,103.2149,97.7446,94.5642,95.5093,99.6392
17.4997,97.9649,103.0818,96.143,93.9304,93.4831,98.8791
17.5387,99.1575,100.8,95.753,93.8687,94.3031,97.7301
17.5777,95.7799,102.5057,96.0408,93.2339,94.7953,97.4329
17.6167,98.7336,103.7821,93.5854,91.1005,94.8604,99.017
17.6557,100.1109,102.3606,95.4928,92.138,93.1703,97.7676
17.6947,98.3841,103.7692,96.7716,93.5105,94.7175,98.2138
17.7337,96.1057,101.9075,98.7022,92.817,91.9179,97.5221
17.7727,96.2754,104.6677,97.9574,91.3287,91.7899,98.7817
17.8117,97.0142,103.51,96.0563,92.1341,94.3426,96.8092
17.8507,95.9675,101.6601,97.5487,91.045,94.5794,96.3001
17.8897,97.9828,99.8909,96.5209,92.9013,95.0499,98.9202
17.9287,98.3761,102.3521,95.7418,92.351,93.4292,100.5037
17.9677,98.6323,101.1213,96.0021,94.453,95.4245,97.4769
18.0067,98.2501,97.905,96.1592,92.278,94.4002,97.77
18.0457,98.1827,100.0566,96.8265,90.0707,93.0979,97.172
18.0847,97.7625,103.5315,95.6394,92.0053,93.9309,97.6742
18.1237,97.7416,101.5137,93.8626,92.9627,93.3577,96.367
18.1627,97.7027,101.263,97.1687,92.9071,92.7359,98.6044
18.2017,97.1415,101.5036,96.9678,92.2705,94.3219,98.382
18.2407,96.5736,101.1308,98.1599,91.5221,94.4779,98.1863
18.2797,95.8541,100.8009,96.8036,93.8173,92.2877,98.4017
18.3187,97.652,98.8371,94.9712,93.1721,94.8153,98.9886
18.3577,98.5828,101.2187,94.5921,89.9725,95.4071,97.8266
18.3967,96.8069,99.0889,94.4165,92.0823,92.9593,97.504
18.4357,97.3967,99.9566,94.5177,93.6434,93.5316,98.7282
18.4747,98.0944,100.5718,93.6853,94.0608,94.4153,99.1469
18.5137,96.5932,99.5057,95.3705,94.3312,93.5661,96.8065
18.5527,96.7462,100.9515,96.6015,92.8443,93.3762,97.1176
18.5917,96.6747,101.9063,94.6074,92.5785,92.3558,97.9728
18.6307,96.8367,100.6664,93.697,92.2397,91.4088,98.1027
18.6697,97.4601,100.9005,95.0531,91.3524,91.8741,97.9997
18.7087,96.4865,100.871,94.6542,90.7713,91.8875,98.1824
18.7477,96.1785,100.6571,92.4647,92.1418,91.3123,97.7725
18.7867,95.8748,102.4543,93.609,93.745,91.8105,97.4538
18.8257,95.9026,101.7522,95.2596,93.5175,93.392,99.1187
18.8647,96.9104,100.569,94.5844,93.0177,93.1016,98.8878
18.9037,96.2613,101.2155,93.7151,91.8809,91.1199,97.5727
18.9427,95.9177,102.8217,95.8845,92.5355,89.3655,97.6619
18.9817,96.5189,102.5473,98.5337,93.448,89.8504,97.3637
19.0207,95.1501,100.3361,96.9376,91.9021,92.8335,98.243
19.0597,94.1584,101.7311,95.1061,90.9137,92.5519,100.0671
19.0987,96.2246,101.5647,95.2482,90.9215,91.6217,97.9296
19.1377,97.6027,99.7313,97.0251,91.4736,92.2304,97.0245
19.1767,96.4355,100.1437,97.1446,92.7643,90.2304,98.9289
19.2157,95.8269,100.1622,96.2643,92.9313,91.1324,98.7384
19.2547,96.1152,100.9772,93.6068,91.819,93.3438,97.8475
19.2937,97.0794,100.8829,95.0875,93.2167,92.9677,96.3204
19.3327,98.7333,99.5743,97.1646,91.7357,91.6434,97.4288
19.3717,98.7487,100.5418,95.3232,90.1064,92.01,96.8565
19.4107,98.5335,100.2554,93.9191,90.7432,93.0631,97.4468
19.4497,97.8263,99.0695,95.017,92.7522,92.9313,99.1315
19.4887,96.2978,100.3502,95.2868,93.4816,92.879,99.6092
19.5277,98.6152,99.3619,96.442,93.8677,91.6647,98.0013
19.5667,100.7559,100.8446,96.8528,93.6124,91.0369,97.5612
19.6057,100.9763,100.2835,93.8453,95.6087,90.5099,98.1849
19.6447,100.8968,100.3055,92.422,99.2346,93.5492,98.1782
19.6837,105.54,103.5225,97.1111,101.5913,94.4017,98.3129
19.7227,106.5089,104.1149,98.691,106.7065,97.4245,100.4186
19.7617,111.7834,105.6826,101.0809,113.2204,100.2766,103.8059
19.8007,114.8355,110.5826,105.8447,115.1846,105.6855,105.5705
19.8397,115.5751,116.6532,107.9494,111.5057,109.3192,104.92
19.8787,110.9614,119.3981,106.0125,102.6098,109.0701,103.8535
19.9177,106.4906,123.1914,106.0356,99.414,108.4291,103.0735
19.9567,100.45,121.4462,104.4675,96.1473,104.8661,100.1348
19.9957,101.0681,113.5307,102.841,93.6642,101.8782,99.7103
20.0347,100.2781,108.5707,98.3906,88.5502,95.8138,97.4704
20.0737,99.1738,102.5534,95.1852,89.878,93.9014,100.0774
20.1127,97.3777,101.9624,96.762,93.9847,93.3972,98.3802
20.1517,96.8682,101.4978,97.0803,92.8083,92.484,96.9158
20.1907,98.45,99.8511,95.6537,92.5935,89.5222,97.7693
20.2297,99.4748,98.7689,96.4586,92.5382,92.8528,98.6564
20.2687,96.8972,100.1336,96.6089,90.93,93.0949,97.9726
20.3077,95.2005,102.6352,95.6382,91.4754,90.9513,99.1238
20.3467,96.0275,100.8944,93.923,91.6605,92.3394,97.768
20.3857,94.4037,101.1624,94.6851,90.9371,91.921,98.6129
20.4247,96.706,102.4606,95.7198,91.8379,89.2401,97.7171
20.4637,97.4309,99.7215,96.9197,90.9649,91.5466,95.6014
20.5027,98.4852,103.76,93.5632,91.5846,90.8013,97.23
20.5417,99.2197,102.5513,96.1594,92.4671,87.4659,95.1825
20.5807,98.1299,99.7433,95.213,91.4595,89.9156,98.7692
20.6197,100.6708,102.1718,96.617,90.9733,89.3155,98.3931
20.6587,98.6272,100.3195,98.1108,92.5413,93.4986,99.0103
20.6977,98.9412,99.2587,93.7591,91.5967,90.7486,96.0045
20.7367,97.9802,98.8481,95.0748,90.6937,88.2527,101.3538
20.7757,100.4043,98.6222,97.1086,90.4472,93.4912,97.4095
20.8147,100.3032,100.6567,99.3664,89.5083,92.0297,97.4567
20.8537,95.4224,98.6994,97.171,91.3049,90.9933,96.4503
20.8927,95.8582,101.0553,95.0703,91.2583,92.0812,98.0569
20.9317,99.3963,100.263,95.7987,93.5252,92.3035,96.9571
20.9707,98.8712,101.4099,94.4915,92.1944,88.7169,96.1359
21.0097,99.5044,101.1742,94.5241,89.8427,90.2542,97.9063
21.0487,100.5678,101.4768,97.2108,92.0303,91.7601,98.5366
21.0877,99.0829,96.8491,97.816,92.9297,92.0281,98.2759
21.1267,96.9848,100.2933,96.6171,92.08,95.0189,100.081
21.1657,98.7358,100.1605,96.2054,90.7587,91.6395,100.6133
21.2047,99.4123,101.0453,96.245,93.2288,89.215,98.5667
21.2437,101.4981,102.3488,96.5987,93.7592,93.9106,102.6141
21.2827,99.5938,104.7399,97.9195,94.752,93.5627,101.261
21.3217,105.2567,101.8039,100.3686,96.2681,95.4079,102.7483
21.3607,106.5246,102.5982,98.8168,98.4793,96.7708,103.1129
21.3997,104.1483,104.7016,100.942,103.8241,97.0639,105.265
21.4387,108.3225,106.5924,105.1635,111.9256,99.0308,105.9005
21.4777,115.8703,106.7343,106.387,123.8276,102.8906,112.1171
21.5167,123.9076,110.6231,108.8663,138.4941,110.08,116.654
21.5557,134.5601,116.8862,114.3213,160.7257,118.3635,124.6582
21.5947,147.5486,127.1405,124.5126,182.6892,136.5746,127.5882
21.6337,156.6687,142.4957,132.1655,175.5621,154.2728,133.4748
21.6727,150.9435,156.9222,138.8643,148.5769,167.0913,133.2333
21.7117,133.147,165.7101,139.2519,125.2755,162.292,129.3508
21.7507,119.9555,162.0933,129.5675,109.0978,145.1103,121.4533
21.7897,111.0772,146.9389,118.6919,100.1176,124.2239,113.2406
21.8287,106.7685,129.9355,110.1095,97.5354,110.7909,108.454
21.8677,105.0474,116.9469,102.7277,95.2727,103.1008,106.4021
21.9067,101.4523,108.1405,100.858,93.0834,100.3609,104.8765
21.9457,102.1518,104.5742,101.7358,92.3985,98.2543,104.4811
21.9847,102.9328,103.6319,100.5813,91.602,95.8189,104.1156
22.0237,103.2093,104.0699,98.5575,91.9954,92.968,103.1909
22.0627,103.3717,105.2769,97.1019,96.7074,95.0182,102.1296
22.1017,103.7246,103.8508,99.4183,99.8335,96.3625,103.6875
22.1407,105.7556,105.1117,101.6363,99.5865,96.2682,105.0872
22.1797,105.8008,106.3991,102.4198,99.7463,97.1309,105.2751
22.2187,106.5992,108.6239,102.4952,97.0675,99.2952,106.3868
22.2577,105.6459,109.452,103.9214,94.8637,100.3264,106.6954
22.2967,101.8373,110.9083,103.5488,90.3014,99.6275,106.4633
22.3357,101.1581,109.4628,102.9337,89.5627,97.2477,102.5653
22.3747,99.0359,105.3101,100.482,91.9792,96.1255,102.2113
22.4137,100.6147,101.1525,99.5622,92.3759,94.7762,103.527
22.4527,102.82,100.0287,99.0524,91.1505,92.2055,102.8317
22.4917,102.9883,102.4931,99.0547,91.4765,92.4605,101.4204
22.5307,101.7173,103.8209,100.1082,92.06,95.0141,100.5367
22.5697,100.4674,103.5305,99.7304,93.0688,94.4151,103.4277
22.6087,102.1264,103.7608,98.8863,97.6236,93.2224,105.6603
22.6477,103.1649,103.7465,99.7959,97.1232,94.4873,104.2086
22.6867,104.5931,105.6141,101.0074,96.1661,95.394,104.0349
22.7257,105.6602,107.8112,100.6271,98.7842,96.4422,106.0483
22.7647,104.5174,107.9655,100.6183,97.8859,97.8113,106.1416
22.8037,104.0928,107.8725,102.7586,95.7149,97.8678,103.7601
22.8427,104.0182,109.3682,103.6271,95.398,95.2617,102.3729
22.8817,103.7224,110.3998,103.6591,96.0883,93.741,102.4362
22.9207,102.1041,108.2078,102.9442,94.9428,96.0408,102.505
22.9597,99.5398,106.2284,99.4579,92.9321,94.6766,103.2406
22.9987,98.5292,103.8593,98.4968,91.6228,92.2973,103.5444
23.0377,99.2738,102.8906,98.7001,91.8172,94.474,101.838
23.0767,99.6271,103.4379,98.762,92.1389,94.2165,101.9443
23.1157,98.4028,100.8372,98.01,91.5719,92.7581,103.6123
23.1547,97.5433,99.8974,96.1944,91.8905,93.5854,103.2146
23.1937,96.4228,100.6743,97.116,92.693,92.9469,102.286
23.2327,97.4734,100.4691,98.6422,92.4817,91.6258,100.4728
23.2717,97.167,100.0624,98.3916,92.6256,90.4136,101.237
23.3107,97.709,101.0472,97.4814,91.7238,91.2763,101.6192
23.3497,98.5943,102.5017,97.6035,91.5952,92.0815,102.119
23.3887,96.3599,101.3591,97.6103,92.8031,91.5033,103.6157
23.4277,97.3787,102.0687,97.9002,91.6655,91.3587,103.9018
23.4667,97.5883,103.0271,98.3302,93.2316,90.8176,102.8611
23.5057,96.8846,102.7981,97.8946,94.749,90.2567,100.8398
23.5447,99.6587,104.8578,97.8321,91.4254,89.8629,99.7135
23.5837,100.3146,102.6519,98.2059,89.9795,89.4885,101.0551
23.6227,100.2162,100.0175,98.8848,91.8489,90.4978,101.7702
23.6617,99.1015,100.6311,98.6842,91.3473,90.719,103.3545
23.7007,97.6676,101.8585,96.813,90.9002,90.9701,99.9575
23.7397,98.9765,102.3272,99.12,91.3489,92.3934,101.5894
23.7787,99.4629,100.4574,100.75,91.4542,93.2083,102.3168
23.8177,96.9739,100.5374,101.0365,90.9376,92.5507,104.9657
23.8567,98.9471,102.227,96.9509,91.5338,92.4605,103.6603
23.8957,100.0788,102.8053,100.1125,94.3916,90.063,102.6888
23.9347,98.208,104.2983,99.6217,93.1907,91.3422,104.606
23.9737,99.3321,101.8861,100.951,94.2062,90.6392,103.4404
24.0127,100.8162,102.5386,100.3767,94.6087,92.1829,102.99
24.0517,102.9108,102.8465,102.4107,94.9674,95.4837,100.8144
24.0907,101.3257,103.0609,101.2508,97.2943,93.4683,107.3936
24.1297,103.3476,101.6027,100.8092,99.2391,93.6106,109.4415
24.1687,105.0001,106.8279,103.1524,104.5353,95.331,107.9571
24.2077,108.8331,103.1113,106.1095,115.559,100.186,111.1583
24.2467,112.7002,104.5988,105.0107,126.167,105.6648,109.4689
24.2857,121.9284,108.0926,109.185,136.879,109.0219,115.9992
24.3247,128.2248,115.7565,113.3266,150.3681,118.0923,120.0083
24.3637,136.8404,125.6183,116.8013,141.6158,129.0641,122.7127
24.4027,127.5925,131.6856,120.8949,128.0895,133.8637,119.6762
24.4417,120.4893,137.6525,125.6729,111.9286,134.4593,117.3437
24.4807,113.1288,139.9532,118.2568,104.1915,118.7052,112.3226
24.5197,105.997,131.2955,111.0206,99.8506,114.1891,109.1131
24.5587,107.1744,116.6508,108.0595,97.4249,102.4502,105.8986
24.5977,103.1739,111.0373,101.0486,96.9856,98.6106,106.4011
24.6367,102.5957,109.3331,101.0974,96.1514,94.9216,104.2471
24.6757,101.6918,105.5121,101.9808,96.1925,96.6061,102.4188
24.7147,98.4685,105.5089,99.6621,95.9257,96.8744,107.4051
24.7537,99.4088,104.5538,100.3684,97.7719,96.7757,104.4519
24.7927,104.4982,103.5883,98.0305,95.5179,93.9374,101.331
24.8317,98.7653,105.7285,100.823,95.366,97.4712,104.838
24.8707,100.7625,104.5,101.0229,97.9633,95.2796,102.0545
24.9097,101.6422,104.5079,101.1441,93.8902,97.4167,103.7897
24.9487,99.7041,105.1688,99.7626,97.1113,92.6043,103.7376
24.9877,100.031,103.7107,102.7685,95.8675,93.7754,103.9535
25.0267,99.2608,104.7875,100.9819,95.6606,93.7025,102.2743
25.0657,101.3092,104.3096,99.9378,96.1199,90.5822,103.3198
25.1047,99.182,103.4491,102.0974,97.8154,94.3373,103.2146
25.1437,100.2595,102.8214,102.5219,97.708,96.4326,101.9615
25.1827,102.3961,103.3992,104.6904,99.0921,97.3532,102.5892
25.2217,102.9904,106.959,102.0122,97.4128,95.4412,104.1536
25.2607,104.9982,106.7628,104.2775,100.7578,95.7841,103.2592
25.2997,105.1685,107.3268,102.1462,102.7607,99.2676,105.5367
25.3387,107.7374,109.1652,103.8208,101.606,99.2001,101.5955
25.3777,106.1743,108.5259,103.6169,101.1473,99.3964,102.568
25.4167,105.5482,110.5303,106.9573,102.9435,101.7248,106.4929
25.4557,105.9076,113.3915,107.4548,101.6438,100.8557,105.1209
25.4947,105.3013,114.0401,105.1119,103.0188,102.3461,105.4776
25.5337,107.059,111.2544,104.837,103.3828,100.3694,104.566
25.5727,106.1328,108.7402,107.0395,104.7267,97.7268,107.1386
25.6117,106.8326,107.3111,104.477,109.3358,100.3683,106.1354
25.6507,112.5819,109.1275,105.1431,116.5769,103.7176,107.1245
25.6897,113.7074,110.9935,106.4646,127.8283,105.9839,112.229
25.7287,121.0176,114.8611,112.5748,146.1387,112.6045,116.1811
25.7677,133.5325,118.9612,115.365,173.6176,122.2997,122.8826
25.8067,145.7843,123.0358,121.3116,193.1942,137.431,131.3816
25.8457,159.0667,132.6729,131.4683,195.1205,152.444,137.5387
25.8847,160.6418,147.5091,139.0397,176.1732,169.8475,137.4449
25.9237,148.1196,165.4961,143.7845,145.9642,175.2644,133.2502
25.9627,132.7942,173.365,142.2894,123.2391,165.1079,126.447
26.0017,120.3032,166.7115,133.052,110.0432,145.373,119.9584
26.0407,110.0791,149.9687,119.1236,100.3206,124.3691,113.1222
26.0797,107.1578,130.9772,110.5524,99.2027,109.9651,109.2455
26.1187,106.2244,117.9558,108.8955,99.2429,103.9829,104.452
26.1577,103.6837,110.8341,105.3029,97.5976,99.316,101.8529
26.1967,102.3212,107.1117,102.8826,96.4683,97.2567,101.5213
26.2357,101.7934,107.2645,102.1701,94.8431,95.9259,100.9007
26.2747,100.8452,106.7989,100.4466,96.4145,95.3171,100.2756
26.3137,101.3903,104.2285,100.2945,97.7302,95.4923,100.701
26.3527,100.8795,104.9345,99.89,95.0794,94.0527,102.09
26.3917,99.9014,105.8434,99.0754,95.5056,94.2462,102.3355
26.4307,100.0257,104.4167,101.505,96.3241,93.6807,101.454
26.4697,100.6173,104.6473,101.139,95.3318,93.642,101.5564
26.5087,100.0445,104.3245,101.2187,95.0915,93.7506,100.0233
26.5477,98.3657,101.3476,103.2232,93.7918,94.1817,98.2231
26.5867,98.1889,101.49,100.0508,93.2411,94.7788,99.3026
26.6257,99.3501,102.6624,98.1819,93.8272,93.9183,99.9141
26.6647,99.8049,102.9647,98.1814,94.8094,93.1277,101.1794
26.7037,100.3294,103.5302,96.6567,96.3805,92.4554,101.3626
26.7427,99.2016,102.7201,98.4045,94.8893,90.8928,99.3728
26.7817,97.4931,100.9356,100.0833,93.1383,92.8992,98.8925
26.8207,97.4329,100.5922,98.8029,93.4395,95.7521,97.9129
26.8597,97.5583,102.5315,98.8812,93.6138,93.5636,98.2947
26.8987,98.7546,103.2065,99.4408,94.7743,92.8971,99.9689
26.9377,98.788,101.4162,98.0207,94.3917,94.3985,100.3908
26.9767,98.8269,99.7277,97.0297,92.7203,94.1986,101.085
27.0157,99.0416,101.2038,96.7213,92.9349,92.7195,100.1828
27.0547,97.3332,101.9469,96.9345,92.7011,92.9111,100.8063
27.0937,97.7207,101.6557,96.8087,92.099,91.6206,102.2735
27.1327,99.4081,100.9373,95.9804,95.0561,91.6684,98.4198
27.1717,98.6305,101.088,98.1818,93.4831,91.3177,97.5172
27.2107,99.4198,99.6901,99.1717,90.6712,91.4239,97.8697
27.2497,98.2177,100.9663,97.1104,92.1976,90.565,97.841
27.2887,97.3282,101.3409,94.5951,92.8635,92.5998,98.8416
27.3277,98.2922,99.5829,95.3802,91.5274,91.2035,99.1665
27.3667,98.3533,101.6852,96.6176,91.6959,91.3732,100.3779
27.4057,98.7751,101.0706,96.9841,91.0274,89.7312,101.1428
27.4447,99.7244,100.0609,98.0746,90.2087,90.7247,99.5124
27.4837,97.3469,101.4592,98.3554,90.9365,88.8522,100.2451
27.5227,95.8017,99.3476,98.4929,90.8536,88.0674,101.9883
27.5617,94.9921,98.6234,96.1284,89.8975,89.419,100.5397
27.6007,96.1407,99.6384,95.3583,91.1691,88.6439,97.7909
27.6397,95.3475,100.7649,98.8938,89.7766,88.184,98.5344
27.6787,97.3486,99.1241,98.0072,88.7949,87.7157,95.9532
27.7177,96.2984,100.1883,98.3678,88.4634,88.5075,97.1368
27.7567,96.9667,99.7379,93.7254,88.5797,87.2638,98.5636
27.7957,98.5629,97.9038,93.6839,89.8429,89.9256,96.4212
27.8347,94.7407,98.5541,96.8832,89.1085,89.3056,97.8127
27.8737,96.4676,98.5048,98.2587,91.3788,89.5856,98.266
27.9127,97.8825,101.5103,96.1768,91.1966,89.2413,98.2703
27.9517,96.5866,99.5901,97.0446,90.8605,90.8631,98.3306
27.9907,94.489,96.0163,96.054,93.5068,91.373,100.3125
28.0297,98.0768,100.386,97.1224,93.5699,92.4357,98.8847
28.0687,96.1829,99.4713,98.1969,93.5827,92.8014,97.7063
28.1077,97.4596,100.3853,96.2184,98.0749,91.8332,99.6941
28.1467,103.0933,99.5445,98.8102,99.8553,90.9354,100.1064
28.1857,103.2841,100.8732,101.616,100.3547,97.1078,102.4635
28.2247,104.0588,102.4943,99.4638,97.9461,95.3941,102.835
28.2637,103.1487,107.0004,96.9904,91.9925,98.4469,102.6125
28.3027,99.5549,107.741,100.1714,87.5573,94.4303,101.9566
28.3417,100.1016,106.3445,97.4752,85.7565,91.8038,100.7329
28.3807,93.7143,105.551,95.6938,89.1884,89.8234,98.3258
28.4197,96.9974,100.6384,96.1253,87.9068,88.5267,98.0744
28.4587,96.483,99.0087,98.1483,86.9398,89.9204,101.205
28.4977,96.3985,97.8051,98.2671,87.5456,87.0606,97.7539
28.5367,93.3572,98.9525,97.4861,88.5069,87.7619,99.4053
28.5757,94.9871,90.5353,96.6689,89.2093,89.7926,96.7934
28.6147,94.6995,94.5207,93.5874,87.5659,88.4779,96.6701
28.6537,96.9721,96.4784,94.0288,88.032,84.9921,98.4312
28.6927,94.812,98.065,94.0955,85.9092,87.481,99.7518
28.7317,94.9415,95.2315,93.6754,89.9537,87.7208,100.324
28.7707,95.5634,96.5447,92.4892,86.3182,85.4426,98.6341
28.8097,94.1951,97.8853,93.3216,89.2167,86.2254,100.74
28.8487,94.0982,100.4266,92.3981,88.6477,89.0562,97.2041
28.8877,97.5805,95.6836,93.3918,89.118,87.0476,97.8071
28.9267,97.8715,94.196,96.4447,91.2911,89.8084,102.005
28.9657,95.0104,96.6772,95.148,89.6744,85.476,99.852
29.0047,95.6322,97.1444,92.8841,88.2984,86.3314,100.8994
29.0437,92.1068,93.5569,96.2369,87.739,88.1032,100.1083
29.0827,96.8585,96.0885,93.12,90.0901,89.6195,98.3865
29.1217,97.3126,98.2148,95.5235,93.162,85.8394,98.632
29.1607,96.9332,99.0269,97.2819,90.7116,85.9849,99.362
29.1997,95.6629,100.9485,95.7222,93.9862,88.6076,98.3094
29.2387,95.95,97.3974,94.117,92.4134,87.9939,98.8842
29.2777,98.2817,97.8865,96.6702,94.1977,90.247,100.668
29.3167,97.573,101.1827,99.0848,97.3572,92.1148,101.1931
29.3557,99.6951,101.3705,97.2605,100.1203,92.3156,101.5869
29.3947,102.8442,100.4103,96.9309,106.3163,93.5013,101.8194
29.4337,108.5363,98.8553,99.8774,115.5063,95.9664,104.3934
29.4727,112.2945,101.9697,103.562,121.3658,100.8756,110.4053
29.5117,114.4142,107.4393,106.7493,123.8439,108.0881,109.6711
29.5507,115.6805,110.8657,110.829,117.7313,114.8785,110.3804
29.5897,114.1274,117.4625,110.5009,110.4025,115.9826,109.3598
29.6287,110.3438,121.1237,108.514,104.655,114.2417,106.432
29.6677,108.5573,119.2782,108.3714,102.6421,109.569,107.5681
29.7067,106.1313,113.1503,106.5029,107.8193,104.9214,106.0865
29.7457,110.873,108.9477,106.0843,118.5231,103.115,109.0153
29.7847,116.0675,106.9437,108.0199,134.7285,105.152,112.2694
29.8237,124.5535,108.9953,109.8458,158.8916,110.9522,119.4795
29.8627,139.9676,111.1088,114.5383,195.6316,124.1212,127.3051
29.9017,156.2865,115.027,123.5983,223.5168,144.688,136.816
29.9407,173.3365,129.3266,135.6836,222.1058,168.5653,145.0894
29.9797,175.7168,147.2961,146.3603,195.3122,188.3336,147.1347
30.0187,159.7316,170.1815,154.345,159.1202,192.8536,142.065
30.0577,141.9683,186.9543,148.9078,127.9156,180.0427,131.7101
30.0967,124.4618,182.3707,136.6982,109.8457,156.7226,118.9873
30.1357,110.2817,165.7039,124.8814,100.3552,131.7672,111.3254
30.1747,104.7534,144.435,112.9022,95.8436,112.8976,106.0226
30.2137,100.9948,123.6334,104.1534,94.485,104.0464,101.7263
30.2527,97.9782,110.2269,99.5932,92.6802,97.526,98.7036
30.2917,96.8249,104.1374,97.9183,91.5063,91.6295,97.3991
30.3307,94.5809,100.6812,97.233,89.8221,90.635,95.8428
30.3697,95.1778,97.5542,98.4422,90.4438,90.8347,96.1421
30.4087,95.4993,94.7119,99.0917,90.7113,90.5701,96.9283
30.4477,94.6212,95.8211,95.8492,87.1266,88.4698,95.2667
30.4867,93.9786,95.2674,92.8054,85.3688,86.1678,95.4251
30.5257,96.131,94.5059,92.3359,87.2392,86.9301,95.3564
30.5647,97.0605,95.673,92.5305,89.1908,87.8616,94.3255
30.6037,95.5932,95.666,93.0003,89.0468,88.3186,93.7071
30.6427,94.6898,97.5868,93.7615,86.8414,88.1702,93.0424
30.6817,93.9684,96.6974,93.0142,86.6839,86.564,93.9488
30.7207,94.4674,95.049,91.3695,88.9013,86.0811,93.3541
30.7597,93.8889,96.192,92.6453,87.9463,87.9362,94.033
30.7987,94.7968,94.9844,94.2547,86.6294,88.0692,95.9499
30.8377,95.6611,94.335,93.6046,87.7494,86.6928,94.8382
30.8767,94.2851,96.067,93.4,88.2371,87.6333,94.5268
30.9157,92.9376,96.1454,93.1156,87.787,86.2837,94.9399
30.9547,93.2963,95.3042,93.2013,86.6847,84.8722,94.8172
30.9937,93.9912,95.9219,93.7427,85.7866,84.7542,91.8776
31.0327,92.2623,95.4422,94.1275,85.3571,83.9104,90.7092
31.0717,93.1461,95.1485,93.9527,85.8559,86.773,92.2366
31.1107,94.7213,93.5408,93.4287,85.5872,85.865,93.8151
31.1497,92.8236,92.9945,92.4344,86.5846,85.1572,92.7479
31.1887,91.9494,90.2344,90.577,85.9479,86.1986,92.6286
31.2277,90.6146,91.8894,89.3634,85.4355,84.8939,92.0218
31.2667,89.6369,93.2577,90.396,85.8943,83.0258,91.7051
31.3057,92.2035,94.814,89.8198,84.0427,83.0089,91.2761
31.3447,91.3267,94.417,92.2352,83.7431,84.1726,91.4145
31.3837,89.984,93.0108,93.703,84.1802,83.8607,89.7828
31.4227,91.8727,93.0964,91.6571,86.275,83.4287,91.0513
31.4617,90.1112,91.6712,91.1826,88.3778,83.5244,90.2188
31.5007,90.0751,90.5259,90.6778,86.703,82.0469,89.6436
31.5397,91.1464,91.0332,89.19,86.1886,83.252,91.9535
31.5787,94.9729,92.4146,92.4493,86.4606,84.5563,93.1345
31.6177,92.7518,91.2704,93.3348,84.8146,83.3312,93.0123
31.6567,90.5991,92.2079,91.4179,83.2353,84.5184,91.5907
31.6957,90.0501,92.0708,91.6027,85.2977,85.0282,91.6564
31.7347,90.0048,94.0397,92.287,87.0021,85.2713,92.3579
31.7737,91.9911,93.2743,91.2501,85.7526,86.2394,92.0511
31.8127,92.224,93.224,92.1785,87.6896,85.0434,91.2789
31.8517,92.4933,92.5865,93.1187,87.785,85.2311,92.8632
31.8907,93.6403,93.0976,88.8284,87.4571,85.3219,95.1172
31.9297,94.8085,93.2778,90.3953,88.4818,89.4157,93.4741
31.9687,95.988,94.6022,91.504,89.1365,88.7593,94.2057
32.0077,95.7865,96.1696,92.4779,90.333,86.8549,90.5368
32.0467,94.4617,97.2994,94.0879,87.4211,88.0408,91.8827
32.0857,94.9121,97.9534,94.8788,85.6219,85.9457,95.0024
32.1247,93.2142,99.0838,93.3748,88.2589,85.7472,92.7658
32.1637,93.5428,98.0482,92.0976,86.3964,87.9127,93.4673
32.2027,93.9439,99.245,93.1713,84.8368,87.0014,93.2548
32.2417,91.1983,96.0818,92.6192,87.5814,85.6584,89.6485
32.2807,91.5762,95.7588,92.8653,86.0509,82.9805,91.2219
32.3197,88.4546,95.8664,89.8615,86.2572,84.3465,89.2766
32.3587,89.4364,92.0068,91.9159,83.5953,85.6833,89.9319
32.3977,94.4631,92.1193,90.4893,87.0579,82.8374,90.9136
32.4367,93.0191,91.8909,89.4986,85.7977,84.174,90.1067
32.4757,89.8379,89.9944,93.0475,87.4089,83.1817,90.7362
32.5147,93.6142,90.3827,89.4828,84.1955,84.4809,94.9399
32.5537,88.2114,90.3622,92.1534,87.6262,82.591,93.3581
32.5927,92.4139,92.4466,90.471,89.2993,87.6291,93.3499
32.6317,92.6808,92.4178,92.9537,93.6136,83.7612,92.7835
32.6707,100.9363,90.654,92.4773,100.4318,88.1057,94.5912
32.7097,100.204,92.1758,90.7136,110.465,89.733,97.412
32.7487,107.2949,98.0362,96.4766,121.6725,95.882,100.9736
32.7877,111.6286,98.4294,101.7057,119.9854,102.6191,104.6074
32.8267,115.2022,101.3137,104.7512,115.7166,107.7841,104.1728
32.8657,113.037,107.7194,106.907,106.5714,114.2814,101.6112
32.9047,105.0523,116.4816,105.3383,95.2731,112.0838,100.2148
32.9437,100.3034,119.1385,103.8738,88.8463,106.1835,95.0385
32.9827,95.0477,115.2502,99.5526,87.0487,98.3438,91.3805
33.0217,93.4112,110.0694,96.125,86.3155,88.0399,91.7478
33.0607,92.8357,102.2591,93.0563,85.4066,85.5424,90.3109
33.0997,89.501,97.2798,92.5024,85.0121,84.1538,93.0021
33.1387,89.7586,96.5054,92.9876,86.8106,85.4779,89.7209
33.1777,91.467,91.8683,91.1198,86.3479,86.2762,90.6129
33.2167,90.6073,90.5181,89.6727,83.5515,85.0925,90.2366
33.2557,91.2259,91.7285,90.1097,84.2326,85.2794,88.7713
33.2947,91.0355,91.0014,90.0074,84.628,83.91,89.0093
33.3337,90.7943,92.508,88.7077,80.9379,81.2263,91.3357
33.3727,90.8379,94.3592,87.885,83.9858,82.5075,91.5874
33.4117,91.0534,90.4056,88.505,81.7195,82.2274,88.6512
33.4507,89.1047,89.9063,88.8979,83.1096,81.8093,90.9008
33.4897,88.8244,91.8453,88.3859,82.6799,81.2331,90.061
33.5287,88.2176,91.9926,88.4521,81.5521,81.2215,87.8016
33.5677,90.4376,91.0609,87.8481,82.5791,80.3872,86.8008
33.6067,89.8534,89.8418,89.2164,83.7164,79.9197,88.3676
33.6457,89.6461,91.5289,88.5133,82.4835,80.6962,88.8051
33.6847,88.7687,90.6019,88.4368,83.2463,80.262,87.3144
33.7237,86.165,90.8252,88.7783,81.3316,79.4831,88.7129
33.7627,87.2841,92.1034,86.4944,80.6851,81.5352,89.5023
33.8017,89.012,91.1921,87.1104,83.6345,81.9561,88.8936
33.8407,88.0574,89.2124,88.5092,83.4786,83.1777,89.1039
33.8797,87.7497,88.6453,88.8195,81.0827,83.2204,88.3494
33.9187,86.9267,89.5352,89.8075,81.3176,81.1041,87.1991
33.9577,87.622,89.9092,88.9917,79.8664,81.7413,87.57
33.9967,88.0421,91.6486,89.0976,81.3713,81.0153,87.3898
34.0357,88.7567,90.0787,88.8331,81.3907,80.8702,86.9909
34.0747,88.7993,89.8028,88.7026,81.117,79.6875,86.4673
34.1137,88.871,90.6485,88.1983,80.7952,78.647,85.9639
34.1527,88.6742,90.9735,87.8526,79.7656,79.2538,86.5953
34.1917,87.1618,89.4854,89.0108,79.3706,79.6556,86.2015
34.2307,85.7529,88.2249,88.213,80.5823,80.2333,86.5415
34.2697,85.6072,87.1823,86.2569,81.8589,80.6607,89.7678
34.3087,88.1733,87.6774,86.4371,82.7277,80.185,89.2303
34.3477,89.2193,88.0605,87.296,84.9896,79.3874,88.7404
34.3867,88.9138,87.9946,87.9934,85.5377,80.3381,88.8543
34.4257,89.0126,88.2372,87.4524,85.2364,82.7074,88.0052
34.4647,89.7678,88.8407,86.0485,86.959,83.119,87.9188
34.5037,90.5597,89.7911,86.7282,91.3086,83.5847,87.3645
34.5427,91.8121,90.647,89.2415,98.4981,85.0028,89.2649
34.5817,95.7845,90.3553,92.8098,107.7143,85.845,93.9984
34.6207,100.1364,92.307,95.6014,120.1451,90.1591,98.8898
34.6597,106.7796,95.5299,96.959,131.4585,97.956,102.9229
34.6987,114.7677,95.8811,101.0295,133.5197,106.5713,105.6917
34.7377,117.1311,99.5223,105.9269,125.2729,117.1424,106.6115
34.7767,115.7965,109.4085,109.437,113.9945,123.2394,106.4666
34.8157,111.7066,120.3721,112.5013,102.6558,120.3931,103.6807
34.8547,103.7394,124.7552,109.9267,92.6261,113.1519,98.0256
34.8937,96.8009,121.9299,103.8676,88.729,104.2089,95.7653
34.9327,93.6094,114.3307,99.3003,86.441,97.1332,94.2569
34.9717,93.0695,108.6936,95.0292,86.1879,90.6,92.4351
35.0107,91.5256,102.5905,91.1094,84.1165,86.4871,91.53
35.0497,89.9607,97.7985,89.5001,82.2916,84.5871,88.1291
35.0887,90.1149,93.2298,91.2305,82.4234,84.2931,87.0358
35.1277,91.1932,92.11,89.3051,83.9373,82.2944,88.7026
35.1667,88.2011,91.9864,86.7578,84.9576,81.6098,88.4491
35.2057,88.8001,89.631,86.2641,84.7569,81.7709,88.3032
35.2447,89.2522,90.0831,87.28,83.5262,81.5985,89.2495
35.2837,90.1585,89.6524,86.7609,84.4652,84.1526,88.7286
35.3227,89.9914,90.8169,88.7939,85.7936,85.1445,87.7926
35.3617,90.5342,93.2164,89.5759,88.5357,83.4223,88.5582
35.4007,89.8553,90.8876,90.0655,87.5085,83.6712,90.233
35.4397,90.4305,91.5029,89.0169,86.6923,85.6797,91.5362
35.4787,91.3178,92.9932,89.0647,86.4611,83.6852,87.8893
35.5177,93.0856,94.8182,88.354,87.4536,83.2276,89.1682
35.5567,92.9759,95.3973,88.3639,89.8205,84.7008,89.1288
35.5957,88.8838,92.1967,89.6841,86.6037,84.8218,92.672
35.6347,91.0392,94.7639,89.7023,92.0843,84.7178,91.046
35.6737,92.8936,97.4972,89.9417,96.4542,84.4355,90.3234
35.7127,93.9602,94.936,91.4883,100.6127,86.4027,92.3955
35.7517,98.5998,91.9913,90.1342,106.0085,84.8941,92.8769
35.7907,100.9386,93.3869,94.8286,110.8875,91.3489,95.2362
35.8297,101.5644,96.5334,94.6416,106.2092,98.9091,96.1872
35.8687,100.3128,98.6433,98.6534,102.0296,102.0387,95.9204
35.9077,100.2068,103.1947,100.666,94.5988,102.3964,92.4576
35.9467,97.1587,105.0526,97.7031,87.7273,99.7545,90.4712
35.9857,93.1129,107.5513,92.895,85.2515,94.1932,89.7165
36.0247,91.6742,105.2773,89.2384,83.845,89.5226,88.9024
36.0637,88.8812,100.4575,90.8337,81.3253,85.5878,88.0694
36.1027,86.7546,95.6149,88.9738,81.2613,80.8197,84.4369
36.1417,82.8058,91.6772,87.4913,83.0211,82.5726,87.2469
36.1807,84.215,88.6381,88.7573,78.8026,80.907,85.7379
36.2197,84.9427,90.0039,85.2639,78.0651,75.7929,87.5123
36.2587,84.9635,86.7379,86.253,83.3109,77.954,85.5059
36.2977,86.4175,85.9318,85.6002,80.078,78.3267,85.0686
36.3367,86.7641,90.2517,88.0845,82.0426,78.2806,84.1504
36.3757,84.6785,86.3858,85.1665,79.5448,77.5322,86.4312
36.4147,85.6366,88.5371,86.5963,77.461,79.0052,87.7574
36.4537,84.4265,90.2354,85.8016,79.4715,76.8194,82.0041
36.4927,83.9129,89.4342,87.4039,80.4575,79.2435,83.4421
36.5317,85.357,86.4919,83.0925,79.7103,77.4668,84.1256
36.5707,86.3311,85.4312,84.9346,78.0216,76.9509,85.1669
36.6097,86.1177,86.522,83.8891,78.7541,78.396,85.4953
36.6487,85.2187,86.9803,83.4118,79.0214,75.8814,85.0915
36.6877,84.94,85.944,84.8189,79.2484,78.377,83.623
36.7267,84.5192,84.3506,84.3242,75.7567,79.542,87.8923
36.7657,85.9843,85.5246,84.3209,79.567,77.8325,82.6678
36.8047,84.9146,88.076,85.0821,79.734,79.1815,83.9322
36.8437,84.2577,87.4269,85.8476,76.6623,78.3113,83.6272
36.8827,82.9204,86.072,85.6251,75.7425,76.0896,82.9283
36.9217,84.4913,88.7451,85.4065,78.1834,79.2478,85.7109
36.9607,85.2622,87.7394,83.6964,81.2154,78.5006,82.9154
36.9997,84.8211,85.3717,85.9258,80.6561,74.2773,84.7148
37.0387,85.3414,84.1438,86.7589,77.9375,76.5615,84.6105
37.0777,82.9581,84.6225,83.8055,79.1961,77.202,84.374
37.1167,84.9381,85.5524,82.9856,79.2335,78.543,84.2756
37.1557,84.4321,83.7309,83.5495,76.1007,76.7702,83.595
37.1947,84.1359,85.6723,87.3127,77.9943,77.2141,84.2297
37.2337,86.0356,85.2778,83.67,79.8448,76.8473,81.7706
37.2727,84.3438,83.5506,84.3446,80.203,76.8081,82.7109
37.3117,84.6797,84.0573,85.2733,82.0223,77.387,85.4479
37.3507,83.0779,86.8101,85.7887,79.9158,77.4267,84.3202
37.3897,83.539,87.4133,83.4581,81.077,74.6179,82.2984
37.4287,83.2519,85.2762,86.2598,80.8541,77.7241,84.856
37.4677,84.3409,83.8213,84.0782,78.2252,78.9351,86.1787
37.5067,84.1098,85.7517,86.1659,79.6557,76.1797,85.4873
37.5457,85.0407,86.2134,87.2425,82.5101,75.4652,85.1805
37.5847,85.3377,85.7911,86.1847,80.0974,77.0514,86.5395
37.6237,83.4355,86.9747,84.4015,80.069,79.0325,85.9281
37.6627,84.9717,88.0963,86.3788,81.5844,80.5515,85.8051
37.7017,87.5193,89.97,86.1766,80.1587,80.0245,84.5417
37.7407,86.7959,88.2911,86.0594,80.4376,80.518,84.9531
37.7797,86.4122,87.1528,86.5713,80.4727,79.044,85.1616
37.8187,86.0347,85.9429,84.6297,79.8214,77.3443,84.5601
37.8577,87.2423,86.8394,84.5669,78.5293,78.4715,83.3063
37.8967,87.9007,89.2546,85.8849,78.1312,77.9051,84.2768
37.9357,84.396,87.6623,85.2256,79.5427,76.9347,85.0502
37.9747,83.2983,84.1268,83.7172,80.1151,76.2716,85.2691
38.0137,82.8954,86.3576,84.7163,80.1887,78.3591,84.1374
38.0527,82.9663,87.8363,85.5288,80.1341,77.1891,82.038
38.0917,84.2793,87.8748,85.7313,78.3063,76.7536,82.9295
38.1307,85.1982,86.4706,85.8079,78.3822,76.2376,84.4688
38.1697,85.5503,86.7542,83.8025,81.8136,75.7693,85.3201
38.2087,85.5274,86.3234,83.0569,81.5645,78.2121,84.6318
38.2477,83.3478,84.7274,84.956,80.0803,77.4246,83.441
38.2867,84.2989,85.6236,87.8808,82.014,76.7758,85.0827
38.3257,86.6819,88.1585,87.09,81.9312,78.8312,84.4068
38.3647,87.0525,87.2161,86.789,83.1531,79.462,84.1425
38.4037,87.5111,83.8842,86.4767,86.0517,79.5977,85.1664
38.4427,89.3031,84.4477,85.294,89.0167,81.2236,85.3147
38.4817,90.984,86.5635,86.5422,97.2823,80.6513,88.5624
38.5207,93.8049,88.8516,86.6456,108.422,81.4493,92.1002
38.5597,99.7736,89.7364,88.1703,118.6503,88.0949,96.2615
38.5987,106.9494,90.1881,92.4496,123.2176,96.9852,99.8426
38.6377,111.2037,93.1499,96.3159,120.1492,105.6921,101.3677
38.6767,110.6159,98.1444,99.91,111.7104,111.3958,101.2585
38.7157,108.1721,106.2278,102.2839,102.303,112.3406,98.3428
38.7547,103.6446,113.7232,102.4019,95.2117,108.671,96.3513
38.7937,99.6957,117.5527,101.5522,87.8357,103.7105,91.9088
38.8327,95.1098,114.2205,97.4463,84.5176,96.1485,88.7253
38.8717,89.7185,108.3924,93.455,82.0542,89.2962,88.6073
38.9107,86.9457,102.4289,92.3339,80.0432,85.93,86.2017
38.9497,88.5801,97.5609,89.1792,79.3568,83.2931,84.4882
38.9887,87.5389,93.3992,87.583,80.8369,79.4802,85.9692
39.0277,85.4762,92.0094,87.3871,81.0784,77.163,85.5096
39.0667,85.8162,90.2591,84.6129,78.0842,77.5389,84.6345
39.1057,87.2848,87.1898,85.4367,78.096,77.9632,83.5786
39.1447,84.2394,86.2239,84.5519,78.8905,76.7479,82.5326
39.1837,83.8954,85.9632,83.0289,79.9144,77.037,85.0831
39.2227,84.4666,88.3036,84.8402,80.4953,77.9509,87.0625
39.2617,84.2239,87.6626,85.9851,80.5642,78.0859,86.854
39.3007,86.9605,87.6827,85.7409,80.8765,79.0569,84.1204
39.3397,86.4959,87.3733,84.799,81.6243,78.2724,84.3918
39.3787,85.5046,88.2753,86.3967,79.6937,77.5275,83.3073
39.4177,86.9061,88.2271,87.4088,81.0159,77.149,82.9488
39.4567,85.3934,87.5848,87.6949,79.1342,77.7061,85.7473
39.4957,86.4573,88.69,85.4118,82.6255,77.4768,84.6696
39.5347,84.7807,87.6855,84.863,79.1668,77.4524,84.0551
39.5737,86.2501,89.0119,85.4785,80.7583,78.858,85.2803
39.6127,86.2603,87.2627,84.0423,78.5076,77.2181,85.9044
39.6517,87.0976,83.8165,86.4785,77.9032,78.568,83.5164
39.6907,84.7611,84.6477,84.7834,79.7714,78.9715,84.0454
39.7297,84.8216,86.452,85.7679,77.1483,76.5052,82.9575
39.7687,86.6916,85.6076,86.0625,79.2546,76.2779,83.6637
39.8077,85.4862,85.5724,84.6797,78.4056,75.2535,82.5146
39.8467,86.4373,87.7758,84.6425,77.8979,77.052,83.0764
39.8857,84.8261,87.053,82.2644,76.6801,78.6444,85.2505
39.9247,83.8832,89.1918,82.9928,78.4947,77.5439,85.2217
39.9637,85.5404,85.9923,81.4559,78.017,76.6499,84.2584
40.0027,82.2856,86.4139,81.9577,79.0765,78.9089,83.6661
40.0417,85.3455,84.8994,85.2455,79.7111,77.6093,84.33
40.0807,84.8126,83.6299,84.2581,82.0883,75.9587,81.3068
40.1197,87.627,86.6287,82.0134,81.3042,77.7687,84.8281
40.1587,85.1744,86.5845,87.6962,82.8729,77.008,88.3178
40.1977,85.0497,85.5274,87.3603,84.0173,77.8838,85.4641
40.2367,89.0853,84.4291,84.0932,86.9414,79.6854,83.9235
40.2757,91.7586,86.406,87.4748,89.0498,79.556,85.3646
40.3147,90.6888,85.3251,86.6803,90.7757,84.3136,88.68
40.3537,93.3854,86.6054,85.2892,85.719,82.8347,83.6234
40.3927,88.8685,90.4464,90.2374,86.17,85.2366,84.0763
40.4317,89.5259,93.0965,89.9293,84.6704,84.3327,86.521
40.4707,86.6631,93.3048,88.4206,83.3945,84.0799,89.0063
40.5097,91.1183,93.8724,85.5711,82.1611,81.3157,86.7184
40.5487,87.0478,90.4604,86.443,82.2643,80.0961,86.349
40.5877,87.6457,90.1233,87.0542,81.8359,79.1225,84.8965
40.6267,89.716,90.9526,89.4266,80.4273,79.4065,86.755
40.6657,88.2979,87.045,85.4395,81.4028,78.8285,85.5433
40.7047,86.7118,91.2049,87.0446,78.844,77.4654,83.8009
40.7437,86.2832,90.6598,85.9982,80.1684,78.3545,85.3239
40.7827,89.9191,88.6621,87.1893,81.3294,79.9482,86.2528
40.8217,85.1605,88.7861,87.6841,79.7015,77.2639,85.2086
40.8607,87.4029,89.2839,84.6178,79.8188,77.191,84.5773
40.8997,84.0641,89.3996,84.9953,76.7166,78.7107,86.9701
40.9387,84.7484,88.5316,86.9897,79.0058,79.0187,85.9383
40.9777,83.3562,86.6768,86.39,79.9075,78.2025,84.7954
41.0167,84.4589,88.2471,86.8967,79.2889,79.2979,85.9278
41.0557,85.2879,84.9912,84.5188,79.0713,77.1665,86.2743
41.0947,84.6015,87.3656,86.4004,78.3376,77.6946,86.6363
41.1337,84.3099,85.9322,86.5976,78.9911,77.7442,83.3744
41.1727,86.6957,86.493,87.5387,79.0951,78.7536,83.1178
41.2117,86.0421,85.8149,85.5375,80.7346,77.2537,86.1543
41.2507,86.542,87.468,84.3298,82.0629,76.1268,86.8366
41.2897,88.5992,86.0577,85.408,80.4206,77.1914,87.0864
41.3287,85.8002,83.5562,86.346,83.0425,78.4141,88.0051
41.3677,88.1321,83.9695,85.3838,86.1413,79.7576,84.3008
41.4067,88.8873,85.9519,86.2876,89.2536,78.1862,85.492
41.4457,88.4756,88.8796,84.3445,94.1509,78.2024,87.1327
41.4847,90.7843,88.54,88.4217,103.7145,83.7303,89.8899
41.5237,95.4524,87.2515,89.7142,112.569,87.2347,92.7914
41.5627,101.5831,88.3906,91.8615,120.0353,94.3056,96.4073
41.6017,107.5202,90.8824,96.3664,117.7693,101.9315,99.5875
41.6407,108.1798,92.6319,99.2893,110.1319,107.3715,97.3066
41.6797,108.8957,100.7404,101.5893,104.0373,110.3573,96.3286
41.7187,103.6036,108.5167,103.4973,97.1264,106.0198,94.6259
41.7577,97.9827,111.7237,101.2644,88.6829,100.9066,91.7158
41.7967,95.9461,111.9482,97.9802,83.6751,96.1502,91.0945
41.8357,91.53,108.6189,93.0647,81.0118,89.5581,88.951
41.8747,89.5286,105.2896,91.3541,80.5958,84.1311,87.5946
41.9137,89.4595,100.2304,88.8766,82.1226,81.4161,86.8004
41.9527,87.7301,94.9816,88.0939,81.7151,80.8222,84.8675
41.9917,86.2052,92.1498,87.0067,79.587,78.9088,85.2726
42.0307,86.659,90.6607,85.7575,79.6892,79.6675,85.4042
42.0697,87.1218,89.0979,85.1428,77.8038,78.0864,84.2475
42.1087,86.2115,87.5915,88.3924,77.5668,77.411,85.5488
42.1477,86.2817,89.4239,90.0725,79.2787,77.7055,84.4945
42.1867,87.1829,87.8923,87.1171,79.0627,77.2084,84.4909
42.2257,87.1247,85.9191,86.2661,77.7204,78.1004,85.0334
42.2647,84.7354,86.4264,87.4684,78.4385,78.9632,84.3678
42.3037,84.7617,85.4244,87.7435,79.6194,79.3479,85.6497
42.3427,85.1415,86.6752,86.5768,78.569,78.3909,84.8481
42.3817,85.2921,86.9669,84.8406,77.8078,77.4343,84.1772
42.4207,87.6209,85.8127,86.0664,79.2096,76.4232,84.8865
42.4597,88.9621,86.7307,85.681,79.3484,75.4822,84.7451
42.4987,88.6302,86.4339,83.7246,78.5245,77.0371,84.6164
42.5377,85.8681,85.8351,84.6165,79.2897,78.4861,83.2862
42.5767,86.2421,86.6923,84.7692,79.1158,77.6768,84.026
42.6157,87.6001,86.4564,84.7173,79.4953,77.3499,86.2637
42.6547,85.9804,85.5281,85.4856,82.6787,77.0183,87.3099
42.6937,87.9861,85.2069,87.6639,87.9841,76.6493,87.4788
42.7327,89.5767,84.7881,88.3798,93.8212,79.1554,86.3214
42.7717,90.1856,86.1523,88.2886,100.0782,82.7267,87.8242
42.8107,94.6651,87.6453,88.6319,104.9662,87.3137,90.2907
42.8497,98.8484,87.6375,89.2189,105.1964,90.6753,94.0887
42.8887,100.3044,87.5818,91.0131,101.6012,93.9752,94.7814
42.9277,101.2461,92.4241,94.6898,96.7035,95.0938,91.1962
42.9667,98.3138,96.8724,98.0022,91.2804,97.3493,92.8061
43.0057,96.826,101.3414,96.2747,87.1642,95.7204,91.1639
43.0447,92.9275,103.4973,94.8571,85.4743,88.7857,88.6367
43.0837,90.2779,102.1486,91.5915,82.9731,86.0765,87.6461
43.1227,89.159,101.1665,89.6397,80.9193,81.8345,87.5038
43.1617,86.8202,96.9776,88.7089,78.6065,78.8306,87.4172
43.2007,85.4753,90.7842,86.1131,78.3448,78.0076,86.1838
43.2397,87.818,87.8783,83.9024,77.4143,78.4045,83.6933
43.2787,87.6381,88.4108,84.8415,78.4848,79.7086,85.6524
43.3177,85.9637,86.8514,84.7327,80.4256,80.8507,86.2331
43.3567,86.4892,85.0518,84.4609,82.4614,78.4995,89.0006
43.3957,86.0523,84.7489,84.1132,80.4309,76.6359,86.2232
43.4347,86.6723,85.3776,85.2529,80.5752,78.2725,85.8624
43.4737,88.8567,87.173,88.189,81.1788,78.5645,86.0112
43.5127,88.4897,86.0594,87.0408,83.6815,78.283,90.4524
43.5517,88.9299,85.1949,87.0681,85.5437,79.9003,89.7943
43.5907,90.9359,85.6058,88.212,91.6743,82.0002,89.4703
43.6297,90.8303,87.2048,89.4617,97.1302,82.4408,89.885
43.6687,94.8694,89.4278,88.5582,108.5368,85.308,94.7757
43.7077,98.9567,88.8229,91.5237,123.749,90.2377,97.5897
43.7467,105.895,92.6761,92.76,137.8117,96.4332,101.039
43.7857,113.7821,92.0371,98.3708,134.066,107.0073,103.2045
43.8247,118.4669,94.1825,101.7225,124.5736,115.3042,102.2582
43.8637,118.9042,103.4243,109.0403,115.4861,123.4475,103.5749
43.9027,113.5478,108.6158,111.7261,107.1539,120.5562,101.0111
43.9417,108.107,118.1644,107.6961,97.2704,112.4,98.1344
43.9807,104.3008,125.4499,105.9319,93.1751,109.3719,97.572
44.0197,97.9617,122.8529,104.2317,94.632,102.9502,90.7165
44.0587,95.082,114.6303,98.2745,94.9145,95.1818,92.7166
44.0977,95.1801,109.895,95.7501,92.5296,90.8909,92.8568
44.1367,94.5851,103.9881,90.4137,88.74,89.2855,92.5608
44.1757,94.6974,97.9854,93.9417,84.1871,87.702,85.1822
44.2147,92.0824,95.14,94.624,85.3319,88.1171,86.516
44.2537,93.3899,98.1709,90.6024,81.4139,87.8755,89.7935
44.2927,89.9248,96.2925,90.1299,79.9995,82.4569,87.0902
44.3317,87.2542,93.3548,89.6574,78.9518,82.4774,85.3851
44.3707,88.5623,93.0013,88.7542,78.6835,80.0984,85.2387
44.4097,84.4155,94.9057,82.8355,77.0561,78.5681,82.0901
44.4487,85.0677,88.215,86.283,78.5478,75.9024,83.0861
44.4877,82.8043,86.9424,84.7082,77.8017,74.8821,87.3177
44.5267,81.7411,86.7395,86.0724,74.7949,74.389,85.9632
44.5657,84.046,86.1076,88.098,78.2965,76.1762,84.4777
44.6047,85.4524,87.7438,84.0233,76.9739,74.6752,84.1743
44.6437,85.6436,84.2874,83.0152,78.8756,75.1615,82.7662
44.6827,87.7269,85.1785,84.9352,77.9976,74.2156,83.8506
44.7217,85.1733,85.9896,83.7528,75.6905,74.2275,81.6767
44.7607,84.8267,84.591,86.1071,75.997,74.3692,83.6148
44.7997,86.1539,85.4835,83.5189,74.0956,71.5574,85.9135
44.8387,84.7494,87.8139,82.9222,76.3505,72.9189,82.187
44.8777,83.5835,84.8786,85.3533,76.7834,74.1983,80.6223
44.9167,84.3485,82.4412,83.4819,75.5936,73.5185,81.4519
44.9557,84.9464,83.637,84.5425,75.9213,72.8634,82.1145
44.9947,83.4286,81.2443,83.7548,75.5253,72.7325,82.9996
45.0337,81.6031,83.1253,81.4265,74.3002,73.3887,80.5768
45.0727,82.0973,84.181,83.8361,75.2463,73.9043,80.8989
45.1117,83.2201,82.9424,83.3822,77.4684,74.4724,81.8383
45.1507,83.1248,82.0118,83.0343,79.9211,74.4945,81.6603
45.1897,85.1418,81.9844,81.5278,81.5123,73.9504,81.7101
45.2287,84.6964,82.2926,83.1055,82.3568,74.7152,82.0229
45.2677,86.9732,84.3139,81.5722,83.6862,76.2963,83.3028
45.3067,85.4229,84.0073,83.765,82.8089,76.8337,83.5875
45.3457,87.4466,85.4529,84.4418,80.1209,79.9169,82.3889
45.3847,87.0532,85.5972,84.2994,80.0662,78.1645,84.5105
45.4237,86.8732,84.9902,86.9437,78.6061,78.3053,84.9213
45.4627,85.7769,87.4466,87.2535,79.3489,77.9966,84.1138
45.5017,86.4853,88.3119,85.8252,76.8286,78.4404,83.6495
45.5407,86.4848,86.849,85.9858,77.928,78.2474,81.7218
45.5797,84.9965,87.4479,85.7518,79.3514,78.1012,82.2708
45.6187,86.3003,87.1683,85.8409,78.87,77.1943,82.231
45.6577,85.7889,84.2556,85.1133,75.8403,77.8546,81.9376
45.6967,85.8879,84.6235,83.4808,80.2295,75.4324,80.6753
45.7357,85.3922,84.2829,83.8753,80.2551,73.9448,78.9366
45.7747,85.7411,85.0517,82.7328,79.0852,73.8416,79.6712
45.8137,83.3016,86.1202,82.852,79.7289,75.4309,82.2231
45.8527,82.72,85.0994,84.4997,79.0246,76.5998,82.2164
45.8917,82.7953,86.0129,86.5477,77.0544,77.8366,82.7335
45.9307,83.2527,85.0547,85.8295,78.1166,78.131,81.7682
45.9697,84.7331,83.0118,82.8666,79.2844,76.047,81.5494
46.0087,84.2495,84.9803,83.9369,78.3065,76.0132,83.4799
46.0477,83.5601,85.7908,85.4229,79.3512,75.2706,82.4631
46.0867,84.1181,84.5623,84.5314,82.266,74.6917,82.4971
46.1257,82.8484,83.6036,85.0266,83.6221,75.3337,82.6637
46.1647,82.6639,84.3914,86.3867,83.4835,77.876,84.4777
46.2037,84.4157,82.4402,85.9474,82.9923,79.5181,84.4714
46.2427,85.2416,81.2506,84.6971,81.7285,78.8848,81.6005
46.2817,84.5693,83.2575,83.4907,80.8488,78.1798,81.8798
46.3207,83.038,85.9694,83.4006,78.5303,77.5912,82.4822
46.3597,83.6234,87.3771,84.8165,76.2076,76.6999,81.8859
46.3987,84.4794,87.7801,85.3741,76.1875,76.637,81.6833
46.4377,83.4373,88.8175,83.425,76.2276,76.2305,80.881
46.4767,81.5044,86.7297,81.872,75.9041,73.6368,79.784
46.5157,80.6826,84.0647,81.4851,74.7699,73.2548,78.8292
46.5547,80.1674,82.5057,80.1607,73.735,73.1114,79.8575
46.5937,79.0988,82.2682,81.1887,73.2608,71.6576,82.3372
46.6327,81.0961,82.7729,82.3905,73.8484,72.0379,80.5747
46.6717,81.19,83.1272,81.1625,74.7229,72.3761,78.8928
46.7107,80.8513,83.0025,81.0068,74.4124,71.6075,78.6787
46.7497,80.7516,81.8367,81.0886,73.9781,71.0957,78.0835
46.7887,79.2339,81.3548,80.201,73.8604,72.6488,78.0966
46.8277,80.2022,81.4077,80.7855,73.7616,74.0006,78.2219
46.8667,80.2307,81.0766,81.0743,75.9973,73.1381,78.4523
46.9057,80.3405,80.0419,81.4869,74.7199,72.9481,78.8372
46.9447,81.4735,80.9147,79.9454,73.1612,74.7308,79.0815
46.9837,78.8923,81.507,79.183,74.3735,73.0206,79.5081
47.0227,80.706,80.654,81.914,76.4842,72.1525,80.6698
47.0617,81.5377,81.4069,81.7468,75.9202,72.6936,80.459
47.1007,80.9705,82.3464,80.7185,75.3703,72.2393,79.3593
47.1397,82.3404,80.341,81.2348,74.7703,72.8171,78.6665
47.1787,80.176,81.5054,80.8427,74.11,72.3418,79.7588
47.2177,80.3774,82.1079,80.2735,74.7233,73.8001,78.9324
47.2567,81.4645,82.0937,84.0996,73.927,72.4723,75.0797
47.2957,81.7552,83.2302,84.0008,74.5059,71.6324,77.3147
47.3347,80.3776,83.8553,79.2885,72.4996,73.8945,78.6434
47.3737,80.0125,83.2382,80.5246,74.8035,72.6501,77.2142
47.4127,79.573,80.3977,79.0896,73.2506,70.7047,75.8907
47.4517,76.341,79.1312,79.9343,74.5955,69.0449,79.5909
47.4907,79.0113,79.977,80.1306,71.6818,71.0226,78.1452
47.5297,77.547,80.8132,80.5798,72.9957,70.297,77.3735
47.5687,78.9052,77.5702,80.6339,74.5422,71.3299,79.4057
47.6077,80.261,78.549,79.0684,73.8058,70.1891,78.9705
47.6467,81.3461,81.6369,81.4522,74.6173,72.1967,79.8454
47.6857,79.4137,81.054,78.4051,73.6141,70.8969,75.0789
47.7247,80.8383,81.9307,78.0611,72.5061,72.5891,76.2712
47.7637,79.4272,81.5798,82.0153,73.9908,74.2936,76.5952
47.8027,78.5737,80.1594,79.7889,72.5493,70.1093,77.2063
47.8417,76.999,78.662,80.0687,70.6594,70.9674,77.9301
47.8807,81.3727,80.6163,82.8918,73.139,72.8309,77.4009
47.9197,80.9904,82.1463,79.7687,75.5972,71.857,77.763
47.9587,79.5825,81.0912,80.4285,72.6664,73.6584,78.8413
47.9977,80.3544,81.5099,84.4202,73.7132,70.9097,78.999
48.0367,78.687,79.6015,82.3789,73.679,71.8107,78.5872
48.0757,77.0507,80.5058,79.7487,74.8961,74.4065,79.6913
48.1147,77.2874,81.748,81.6845,71.3899,70.6183,77.0973
48.1537,78.395,80.614,81.592,74.509,73.0337,80.1929
48.1927,80.8427,83.1225,82.5677,73.6826,70.5932,76.9954
48.2317,76.0429,84.4947,79.2067,72.577,70.914,76.7178
48.2707,79.0217,81.8857,80.4393,72.0634,73.2559,74.7456
48.3097,78.6647,81.6915,81.4877,70.588,71.4435,73.7967
48.3487,80.0169,80.1898,82.657,72.3502,71.479,76.6198
48.3877,81.1326,81.3768,79.5968,77.1459,68.5127,79.2752
48.4267,81.0115,80.288,81.4941,73.937,70.3546,78.7101
48.4657,77.9403,81.2186,80.7996,72.8605,68.8128,76.2842
48.5047,78.0784,81.1379,78.9089,74.4604,70.47,80.2692
48.5437,76.7726,79.4174,83.3222,71.3223,72.6073,74.5483
48.5827,80.0158,79.225,83.2814,72.3781,70.6553,76.1666
48.6217,78.1555,79.2763,79.0301,70.7095,70.2191,75.0016
48.6607,78.6965,79.0215,79.1371,72.2569,69.7287,78.4732
48.6997,79.594,78.5131,78.7574,72.1612,71.1477,76.7896
48.7387,80.7526,80.8545,80.5575,71.2319,71.0986,75.7035
48.7777,79.1911,81.7488,79.0721,72.4205,69.8419,74.6891
48.8167,78.2178,81.3362,81.1173,71.6611,70.3483,75.8676
48.8557,80.4378,81.0071,80.0253,70.71,69.5495,77.634
48.8947,81.2934,80.5979,81.9487,70.4285,68.7071,76.2098
48.9337,78.9052,78.1919,80.8627,71.2257,68.421,76.8236
48.9727,77.5756,79.8087,79.2245,72.1948,66.5227,80.1419
49.0117,77.0252,79.8088,77.5216,72.2386,70.8324,77.939
49.0507,78.7748,78.6874,78.8417,70.2038,69.9382,77.2321
49.0897,76.6905,77.4669,79.7027,71.8375,69.9167,77.277
49.1287,79.0544,77.1426,79.2405,71.2197,69.3708,75.5792
49.1677,77.3438,78.399,79.3774,70.9265,68.7311,77.3217
49.2067,79.4739,77.4943,78.5565,72.4824,69.1311,79.0338
49.2457,79.409,78.3401,78.1412,72.1827,68.5567,77.9835
49.2847,76.731,77.1857,79.2329,71.9315,67.9535,78.2383
49.3237,75.7489,79.7543,79.121,71.4231,69.9745,78.3123
49.3627,76.9893,81.0405,77.3643,73.4077,70.4172,77.4099
49.4017,76.3217,80.0142,79.8377,72.1734,71.894,78.0676
49.4407,78.9974,80.7756,80.7746,72.7783,71.8057,76.8496
49.4797,80.361,81.4805,79.7163,73.953,70.1802,78.2922
49.5187,75.9815,81.5222,78.8945,73.6071,69.5923,77.5574
49.5577,76.1838,80.0036,79.5337,74.007,69.0511,78.0551
49.5967,78.76,80.3276,79.1122,72.5803,68.9471,76.5275
49.6357,79.645,79.0082,80.4846,70.1861,69.0051,76.937
49.6747,80.0625,78.8177,80.5194,71.0686,71.6158,76.8393
49.7137,79.0042,78.3684,79.596,71.6936,69.0525,76.7066
49.7527,78.3039,80.1035,78.9283,70.4606,66.9493,78.1707
49.7917,77.8599,81.3379,78.609,71.3627,68.6906,79.0558
49.8307,77.9703,81.9164,78.2533,71.8048,70.3675,78.341
49.8697,78.0857,80.1357,79.0766,71.4267,70.9143,78.1024
49.9087,78.2514,79.3461,79.2838,71.9232,70.0446,79.7497
49.9477,79.2439,79.7155,79.3577,72.1951,70.8649,80.5013
49.9867,78.2747,81.1401,80.835,70.7303,72.3824,78.7337
50.0257,79.1056,80.9594,80.5101,71.1051,70.5738,77.4956
50.0647,79.6768,79.924,80.1935,71.728,70.3461,78.1713
50.1037,78.491,79.2485,81.7545,71.3194,71.2629,77.543
50.1427,79.3649,77.9841,79.8178,73.0696,69.2796,76.2013
50.1817,79.1441,78.1652,79.7465,73.5447,69.9256,77.2956
50.2207,78.5767,78.6907,81.1908,71.8331,69.8928,77.9437
50.2597,79.4428,80.0607,79.5852,71.6366,69.1089,78.3178
50.2987,79.9171,80.8204,80.1849,73.7686,70.3857,78.7572
50.3377,79.2155,79.8668,80.7142,75.7998,69.6512,78.3824
50.3767,78.9657,79.1035,81.041,76.0788,69.7245,78.6629
50.4157,80.4259,79.7256,82.5376,75.662,71.1885,79.1883
50.4547,81.398,81.8288,81.6098,75.5053,73.2026,80.0666
50.4937,81.8374,80.7063,79.8307,77.7138,73.7992,80.96
50.5327,81.783,79.023,80.8554,80.8366,72.1926,82.2969
50.5717,83.4337,80.5917,83.1455,85.2095,72.1889,82.235
50.6107,85.7011,83.1978,83.3789,93.6274,73.9276,83.8941
50.6497,86.4574,83.3872,83.9615,102.5826,78.229,88.2453
50.6887,89.8772,81.9648,84.7333,109.1787,83.9984,89.8781
50.7277,94.4708,83.5367,86.852,108.6794,90.1997,91.7865
50.7667,99.3103,84.9087,89.0447,104.3243,96.9745,92.5079
50.8057,101.1925,87.9392,92.4748,101.3589,101.1538,92.375
50.8447,99.4998,92.2792,95.7929,98.9819,100.413,90.7533
50.8837,96.3058,97.6753,97.3973,98.5784,98.3876,89.7509
50.9227,95.9778,100.6739,95.6921,97.2361,96.8327,88.952
50.9617,95.5982,104.7618,93.3827,98.3971,94.8107,90.0922
51.0007,93.2984,104.943,94.6852,94.6242,93.122,89.0519
51.0397,95.6677,101.0712,95.6841,89.9271,91.5732,88.6243
51.0787,94.0628,101.2297,95.1824,88.4749,90.0165,87.0335
51.1177,92.2385,100.0892,95.5305,86.8641,90.108,83.497
51.1567,90.2888,100.1625,93.7219,84.1,87.4566,84.5544
51.1957,88.6686,98.9127,92.7175,78.5112,84.6257,84.8808
51.2347,88.5822,97.2414,90.5016,76.2667,80.1529,82.8939
51.2737,84.6916,95.1665,88.6839,73.01,77.729,80.9624
51.3127,82.2306,93.6404,87.0468,73.2326,78.3528,80.9742
51.3517,79.7287,93.1246,84.6809,73.3003,74.5045,78.6401
51.3907,82.3045,89.3568,81.4929,73.9325,73.4451,79.3141
51.4297,81.17,86.0836,82.5109,73.9194,73.0953,81.5476
51.4687,80.2458,85.2713,82.5229,73.9511,74.4119,81.0378
51.5077,79.5856,85.3025,82.6942,71.9332,72.4798,80.4481
51.5467,78.2622,83.5526,82.1784,73.5376,71.675,78.9918
51.5857,81.2384,82.1835,80.589,72.273,69.8234,75.9815
51.6247,78.0105,82.0742,81.9765,72.6453,68.6437,76.2024
51.6637,79.9251,80.5039,81.5956,71.0289,67.7303,78.5495
51.7027,79.9823,82.49,82.8399,69.7026,68.0667,80.3208
51.7417,77.0338,80.2366,79.5687,72.3083,68.5057,79.5414
51.7807,80.4901,79.135,79.0399,70.6176,70.0792,77.9742
51.8197,77.2079,78.5732,80.4694,73.0947,68.8544,77.734
51.8587,78.3968,83.3315,81.561,73.6816,70.0418,77.6257
51.8977,80.4679,78.4185,81.8088,74.0903,69.0744,81.9831
51.9367,82.4781,79.4926,79.8242,76.347,72.3236,78.9564
51.9757,80.7116,82.1617,82.2848,79.7282,73.632,79.9801
52.0147,81.9151,79.9001,81.9385,82.742,71.9416,80.3318
52.0537,85.0405,80.3196,84.5648,88.5159,77.525,82.8654
52.0927,84.834,82.1524,81.4198,87.8499,78.3983,82.6538
52.1317,87.8601,84.1054,84.014,84.3448,82.1429,81.3725
52.1707,86.9959,81.8463,85.5726,81.3895,81.9451,81.009
52.2097,85.7838,84.8456,86.4559,79.1503,78.5555,82.1799
52.2487,87.9002,86.8239,85.0931,78.3405,82.6803,82.0032
52.2877,86.0141,86.7746,89.2149,80.0458,77.2086,83.2939
52.3267,84.8228,88.6132,83.0021,76.75,78.3224,81.3273
52.3657,82.741,88.721,87.2234,75.2401,76.7057,78.5602
52.4047,81.5068,87.8411,84.3207,74.3311,73.1969,76.4913
52.4437,82.9524,85.9471,83.9822,72.963,73.5768,79.2276
52.4827,81.4277,82.3648,83.0505,76.4198,72.7927,79.1204
52.5217,81.8072,85.1957,83.7725,73.4449,74.6232,79.2092
52.5607,79.4708,83.0456,80.9371,73.3844,71.6652,76.9108
52.5997,79.9068,83.5313,80.8536,72.129,70.4626,79.0814
52.6387,84.3942,80.2219,83.2667,75.7241,69.7174,78.8877
52.6777,78.6675,81.2869,80.8357,74.196,73.1377,77.7908
52.7167,79.9931,80.0124,79.7979,73.8542,70.9819,77.266
52.7557,79.6306,82.7964,82.3231,75.5137,71.7563,81.8914
52.7947,82.0533,84.2544,80.2951,76.7608,71.7297,80.0192
52.8337,81.0457,82.4867,80.3103,78.9826,72.5545,77.2433
52.8727,81.4403,81.1963,80.2998,80.8586,74.1468,80.9366
52.9117,80.7223,81.4611,83.7635,81.7624,74.3799,81.1367
52.9507,83.803,81.2302,83.2654,79.9075,75.8187,80.2481
52.9897,83.1246,82.5527,81.3864,78.8,75.1627,79.5918
53.0287,82.3722,82.3915,81.8312,77.5792,75.6865,78.7026
53.0677,81.8836,82.9252,85.1851,79.608,77.5257,78.22
53.1067,83.9648,85.3294,83.5135,80.6912,76.0093,79.4439
53.1457,84.4628,86.0989,82.4755,79.7823,77.0175,79.3875
53.1847,85.5216,85.4482,82.2551,79.2778,78.6072,80.3396
53.2237,85.5498,84.4679,83.7044,78.0133,79.0625,79.4003
53.2627,82.32,84.8776,82.7796,77.6259,78.8995,78.6581
53.3017,81.3724,84.0633,82.4068,76.6026,76.7451,78.0357
53.3407,82.6918,85.4566,82.243,73.6698,76.9026,79.046
53.3797,83.3626,84.9841,82.3477,72.087,74.7678,79.9853
53.4187,79.8425,84.4628,81.4389,74.3893,73.6448,79.0491
53.4577,79.9157,85.0168,80.2255,74.1575,72.8101,78.4649
53.4967,80.3057,83.6603,80.3887,74.0464,70.7129,78.5835
53.5357,79.0694,82.5648,80.2019,74.0233,69.6031,77.3379
53.5747,78.7498,83.8511,79.1482,73.9203,70.4474,78.0024
53.6137,79.1446,82.7325,78.5029,74.4914,71.7885,78.1083
53.6527,79.3158,82.6231,79.7427,73.9548,72.1831,77.5255
53.6917,79.8485,81.757,79.37,73.9381,71.4531,77.0995
53.7307,78.31,81.1235,78.853,73.4087,71.5908,77.6725
53.7697,79.532,81.4186,78.7562,72.8211,72.602,76.6872
53.8087,78.2703,81.2829,81.2536,72.3124,70.7215,76.2408
53.8477,79.5621,81.9792,82.3061,72.4815,68.7349,77.3689
53.8867,80.6463,81.3187,81.6626,72.897,69.5903,77.2769
53.9257,77.798,81.5201,79.8107,73.6847,71.8773,76.2254
53.9647,78.356,80.8093,79.2326,72.1798,70.4369,76.0595
54.0037,79.3501,80.1174,79.1317,71.592,69.1983,74.9556
54.0427,78.4447,80.704,79.0336,72.832,70.3271,75.0854
54.0817,77.8078,80.3163,78.9387,72.3161,70.0703,75.5444
54.1207,77.4661,79.24,78.1798,70.73,67.0537,75.3993
54.1597,76.9292,77.9463,78.9256,70.1616,66.4931,76.0962
54.1987,75.9124,78.2835,79.0727,70.565,68.0739,76.396
54.2377,76.5419,78.6373,77.2436,71.0383,69.0866,76.1437
54.2767,77.702,79.3808,77.3716,70.6618,69.4561,76.2806
54.3157,78.3413,79.9411,78.8697,70.1403,69.3483,76.3125
54.3547,76.9894,79.3759,78.9243,70.6512,69.6158,75.4206
54.3937,75.6202,79.3931,78.4941,70.9362,69.305,74.7841
54.4327,76.41,78.3484,78.3898,70.9381,70.7364,75.4848
54.4717,76.1556,78.7527,78.7142,70.0826,70.8015,77.2134
54.5107,76.5105,79.0804,78.8459,71.0692,70.752,75.5551
54.5497,76.4467,79.2478,79.2121,72.9929,70.2757,74.2558
54.5887,78.4637,79.4931,79.6116,71.4852,69.6544,76.2551
54.6277,79.0481,79.5698,79.9755,70.9162,70.552,75.8683
54.6667,80.3261,80.5502,78.2547,70.5038,70.6501,76.0833
54.7057,77.9705,79.7059,77.5648,70.0287,70.3614,76.1309
54.7447,76.6794,77.4454,78.5146,72.3911,69.4493,75.884
54.7837,77.6997,77.7105,79.2291,72.2916,70.0296,75.76
54.8227,77.2398,79.0407,79.3666,71.2785,67.717,76.9357
54.8617,77.7388,78.8366,78.9173,71.1949,69.4818,75.84
54.9007,77.9917,79.1396,78.7889,72.9936,69.7847,77.7467
54.9397,77.9351,79.2133,79.7277,73.6953,68.6578,77.7653
54.9787,79.302,77.6006,80.1955,75.9811,69.2727,78.0793
55.0177,80.8488,79.8669,79.8372,76.6716,69.4224,78.0057
55.0567,79.5709,80.4704,80.0745,73.4791,72.475,76.7231
55.0957,79.3001,79.9788,80.1746,73.1442,72.6035,77.7969
55.1347,79.8418,78.8877,80.4026,74.4008,72.1029,76.5586
55.1737,82.5141,79.9859,80.0813,74.4128,72.1727,77.7284
55.2127,80.0135,80.2171,80.5471,73.0022,71.8006,77.312
55.2517,79.5593,80.7695,79.5497,74.075,72.1405,77.3733
55.2907,78.9028,81.5556,80.3978,74.305,71.652,75.579
55.3297,77.4482,81.6971,83.211,73.107,73.7002,75.3562
55.3687,78.5529,81.6827,80.2614,72.9584,72.1831,74.9524
55.4077,78.4147,83.3928,79.0738,73.752,70.9004,75.2385
55.4467,78.4817,80.7529,78.5911,70.9763,70.1411,76.0922
55.4857,79.295,80.4764,79.3222,69.5838,69.084,76.4991
55.5247,77.7654,81.3585,78.4089,69.7321,68.5244,76.371
55.5637,78.8189,79.5183,77.7792,71.7895,68.268,76.508
55.6027,76.6177,81.2664,78.921,70.2074,69.5899,77.0198
55.6417,75.5107,82.0102,78.5224,70.091,72.1154,73.6767
55.6807,74.1406,79.0005,79.3393,71.8559,70.4708,75.6277
55.7197,76.2767,80.8145,81.6711,73.5227,69.8411,76.6921
55.7587,77.2128,80.2616,80.5817,70.5186,69.5203,74.4361
55.7977,77.1462,82.3872,80.4086,71.0233,68.2049,73.8893
55.8367,78.1083,82.5929,79.2718,70.7346,68.4689,76.131
55.8757,78.0635,83.0931,79.0033,73.0838,68.4736,77.2205
55.9147,75.697,80.0954,80.9154,71.5618,69.0611,72.852
55.9537,77.2722,79.3385,77.8578,71.1106,67.7213,76.2436
55.9927,76.4146,77.7759,80.3846,70.2873,68.6173,74.1726
56.0317,77.5819,78.0574,79.1735,71.8985,69.3426,75.8951
56.0707,78.5508,78.9596,78.0225,72.9805,73.004,74.7841
56.1097,76.3814,78.0176,78.5366,73.5043,68.5145,78.6572
56.1487,78.6617,78.6544,79.3584,79.6057,69.1308,77.363
56.1877,81.6551,80.8805,79.1002,80.2872,71.9679,78.1878
56.2267,80.8223,77.4925,80.7492,88.185,72.1006,81.0672
56.2657,81.8349,80.2686,82.314,85.5569,75.9958,78.0552
56.3047,85.9655,81.0733,80.3979,82.7378,79.9424,80.2253
56.3437,85.0759,78.9573,83.4466,82.9539,78.334,81.0441
56.3827,84.293,83.5073,83.6974,82.1435,81.029,78.9979
56.4217,85.0641,80.6888,87.032,81.8344,79.8736,81.392
56.4607,82.8991,87.3153,83.1654,77.8941,79.3996,80.0155
56.4997,82.8722,87.0208,85.9892,74.859,78.9343,80.5935
56.5387,83.5037,87.2882,84.7624,72.1271,74.8685,77.8754
56.5777,80.4084,89.4208,82.5766,73.8663,75.063,76.7332
56.6167,78.9915,86.0398,82.7099,71.7457,74.1751,78.8176
56.6557,75.3191,85.2382,81.7295,71.9883,73.8714,75.4843
56.6947,77.3959,87.3902,80.3256,73.1795,71.0671,76.1252
56.7337,78.0428,86.6489,78.5902,72.9663,71.7253,76.2308
56.7727,80.9656,82.8102,80.001,73.2544,68.2548,75.9173
56.8117,77.9567,82.886,79.9133,73.1221,70.8824,76.1147
56.8507,81.8271,80.4934,80.7497,71.1712,70.9974,76.5241
56.8897,81.2922,81.4548,78.079,73.5673,71.3747,78.3557
56.9287,77.6078,82.1964,81.6207,75.1828,71.8799,77.3682
56.9677,81.3516,84.7131,81.9298,77.1136,74.4171,78.8693
57.0067,81.2422,83.3919,80.3453,78.7043,71.3668,78.5832
57.0457,82.8824,80.2424,78.7735,77.6545,71.6873,78.5068
57.0847,81.6225,81.7315,81.3353,77.4782,72.9995,78.5402
57.1237,80.8962,82.5855,82.0592,75.2757,73.6097,78.103
57.1627,81.4986,81.3892,81.7358,73.0881,72.3051,78.1978
57.2017,79.1466,85.1483,81.7226,73.9322,72.3475,76.5285
57.2407,80.6656,83.2551,83.8403,72.9659,72.3816,77.192
57.2797,81.303,84.0173,81.9593,71.0869,71.4776,75.8119
57.3187,79.2337,82.9236,80.1261,71.6703,72.6546,75.8144
57.3577,78.7022,83.0498,79.1826,71.4268,71.5097,77.973
57.3967,78.2586,82.9272,78.9858,71.0582,70.0276,75.6564
57.4357,79.3398,81.5542,79.1296,72.906,71.1644,75.4737
57.4747,78.1413,80.9499,79.2598,73.4384,69.8718,74.1661
57.5137,78.2016,80.2792,79.4098,73.3839,68.0816,75.1393
57.5527,77.6647,77.9499,79.2581,71.6681,69.5008,76.0552
57.5917,78.3298,78.8353,79.1887,71.2909,68.9911,76.6934
57.6307,78.963,80.407,78.6202,72.9509,67.6103,77.298
57.6697,79.2939,80.0659,79.186,72.035,67.8955,77.9336
57.7087,79.6837,79.8205,79.2329,70.7844,68.1162,76.9281
57.7477,78.5453,79.6011,80.6309,71.044,68.7802,77.5941
57.7867,77.6605,78.8727,79.808,71.3653,69.6806,77.3852
57.8257,77.5139,80.4171,77.2216,71.3126,69.4172,74.9085
57.8647,78.4632,82.6569,78.2508,70.5632,68.9652,73.2789
57.9037,77.9562,83.4696,79.831,71.0239,68.1814,75.1773
57.9427,77.8448,81.595,79.0365,71.8873,68.3811,76.5605
57.9817,78.0349,81.8389,78.6689,70.9675,69.3342,76.4019
58.0207,75.9917,81.5952,79.1401,69.0411,68.8019,76.7105
58.0597,76.4703,79.9179,78.2962,69.631,67.836,76.4149
58.0987,77.8846,79.5056,77.3526,72.6199,68.1248,76.0559
58.1377,77.3974,78.745,77.987,73.2978,68.9213,75.5103
58.1767,77.862,78.6794,78.5717,72.664,69.4933,75.7267
58.2157,77.4991,79.291,79.1483,74.5628,69.2901,76.593
58.2547,78.5502,79.9952,79.2931,76.4828,69.1507,76.6451
58.2937,79.6172,79.7513,78.3848,75.8492,69.9042,76.714
58.3327,78.3878,79.1079,78.4864,74.2852,70.9709,76.1831
58.3717,81.3228,78.6511,79.5067,72.846,72.0556,76.7143
58.4107,81.1616,80.8628,80.2418,73.0707,72.0718,76.966
58.4497,78.6585,82.0295,80.8478,73.723,72.7095,77.1605
58.4887,80.2458,79.1111,81.4375,71.8689,73.1232,79.9918
58.5277,79.8497,80.6171,80.5677,70.4471,72.0318,78.1255
58.5667,80.3701,82.5412,80.5466,71.3201,70.598,76.3565
58.6057,80.2014,82.7522,79.5011,71.4175,68.412,76.6457
58.6447,79.6327,83.0308,78.9364,71.3766,68.3283,76.5081
58.6837,77.6844,81.9041,80.5965,71.9162,70.224,76.3972
58.7227,78.2858,81.5427,80.7981,71.4333,68.5818,78.1875
58.7617,78.5661,80.4243,79.0106,71.4714,69.7978,77.749
58.8007,78.1571,80.7703,79.4459,76.2036,70.5272,78.0176
58.8397,80.5026,80.1328,78.707,75.8558,71.1236,78.3909
58.8787,79.152,80.3426,80.2894,76.2787,70.5003,77.3015
58.9177,80.2316,80.7011,81.1311,81.0116,71.5679,78.5341
58.9567,80.8323,81.2823,78.1976,86.5085,71.4914,78.8917
58.9957,83.1836,83.3089,79.0531,90.3228,74.3308,80.8283
59.0347,87.7237,82.0287,82.3358,92.0289,79.2044,81.6893
59.0737,87.3088,81.2534,81.3662,91.3662,82.6711,83.8652
59.1127,90.5206,81.4377,84.0014,90.141,85.1821,81.493
59.1517,91.6713,81.9164,85.703,89.7775,84.5574,83.1415
59.1907,90.0338,81.9625,86.4632,91.5467,85.9518,85.4693
59.2297,87.9323,87.4585,89.0584,92.2762,85.4242,84.4067
59.2687,89.2183,93.033,89.0255,89.5769,86.2291,82.866
59.3077,90.046,92.2541,88.9985,87.2762,84.7366,81.7707
59.3467,89.3765,92.6521,88.3264,82.6499,86.5069,81.7921
59.3857,90.5199,87.6737,88.6737,79.0793,86.5122,81.7048
59.4247,86.7976,87.6483,90.0632,79.3431,82.2993,82.7254
59.4637,87.8669,91.5998,89.9533,76.995,80.1484,81.9242
59.5027,84.1477,93.9978,86.2645,74.4164,78.5038,76.8824
59.5417,82.2851,90.9323,85.1391,71.3199,75.8078,77.6615
59.5807,79.5256,92.2844,83.8918,72.5058,74.969,76.5693
59.6197,78.3613,89.0939,82.554,71.6261,71.436,76.6683
59.6587,80.0795,87.2921,81.4261,71.3037,72.2972,74.5091
59.6977,76.2182,86.3522,80.4634,69.8034,69.4691,73.6141
59.7367,76.5542,84.4126,75.9526,69.1316,68.7535,76.0331
59.7757,77.1972,84.4544,77.9805,70.8166,67.6748,74.919
59.8147,77.6983,81.0455,77.4448,71.2219,67.5024,74.9352
59.8537,78.928,83.2088,76.7875,68.8196,66.584,76.4535
59.8927,79.2791,80.503,80.2653,69.8271,66.1943,77.1266
59.9317,78.6388,80.3823,79.387,67.5333,66.3378,77.0881
